Voltaje_EMG
3.669885097669094067e-04
-6.800972286013051531e-04
-1.373846624802536713e-03
7.287797603100899888e-04
7.169059333320348081e-04
-7.970723876617167615e-04
-1.428896536120437136e-03
-3.342877731105460201e-03
-3.970881393727514891e-03
-4.024759899082720749e-03
-4.355382212396769967e-03
-4.782847787750533000e-03
-4.852994234751194409e-03
-2.406238666431127944e-03
3.193167953515758765e-04
2.774499248106480822e-03
4.080428691249948434e-03
3.668414617249939579e-03
3.220485157036877787e-03
4.128082084374244502e-03
5.800371952806423516e-03
4.147859364079232308e-03
1.860217802630192291e-03
5.100003538421734803e-04
-1.822830633141237465e-03
-1.949669658272209106e-03
-2.977759435244893473e-03
-3.858373458704399128e-03
-3.520099931474166086e-03
-5.510787781089078463e-03
-3.761800230120502554e-03
-1.718152225615048045e-03
-1.446097612215320027e-03
8.083107792997448705e-04
1.498426063908463992e-03
2.116134600544001664e-03
4.436685183752092643e-03
4.496588399060002204e-03
1.917506129713282678e-03
2.483193745939750799e-04
-1.519838602108320802e-03
-2.576639861944441095e-03
-3.257056723668903808e-03
-4.309043125397734979e-03
-3.891436840876536657e-03
-3.679212476326811174e-03
-3.383086406857672545e-03
-1.994337327530593031e-03
-1.063790508744579888e-03
4.072069670217995678e-04
1.781487424523652127e-03
1.906129222795514789e-03
2.876259789888152216e-03
3.464825299301364445e-03
5.067970250424297385e-03
4.439494844260413742e-03
1.850878359810556378e-03
1.928019027984125651e-03
1.837410307039760628e-03
2.346611668147236505e-03
2.377733588229665861e-03
2.434575479255444812e-03
2.118785982073271429e-03
1.163467175541317870e-03
2.937051207025339998e-03
4.249484210303979513e-03
4.788136569961839138e-03
5.816813175045205432e-03
5.706498810242533609e-03
5.464398905745002089e-03
4.702871869125240488e-03
5.378602519945617499e-03
5.948697150508690766e-03
3.906835177158471915e-03
3.327058405073256980e-03
2.004905807708232731e-03
-5.772197669084791222e-04
-2.227536517936088995e-03
-4.128635502697260845e-03
-5.820978327552668238e-03
-7.277628267718692229e-03
-8.662956222096002482e-03
-8.978642755473699444e-03
-9.319259468102188831e-03
-1.008147078549869249e-02
-1.083472735531907163e-02
-1.107590009566294248e-02
-1.173089445145807097e-02
-1.434661211856960369e-02
-1.502769387039927344e-02
-1.645725126212407505e-02
-1.827477010844478708e-02
-1.846585522194160722e-02
-1.967369814361373537e-02
-1.886646945907806752e-02
-1.808657977427048646e-02
-1.715270989439935181e-02
-1.562517388756944417e-02
-1.255004195871041797e-02
-8.016360891308617342e-03
-5.640892977882313968e-03
-1.361687536856569713e-03
1.941922392483089654e-03
4.901089512339124217e-03
1.007259256870192757e-02
1.412414751837728390e-02
1.786162969898655306e-02
2.053636542538555404e-02
2.460971373113387747e-02
2.887452074791472742e-02
3.302684868229480847e-02
3.732563162844774324e-02
4.055764367237449375e-02
4.590025263115291715e-02
5.131723054299040798e-02
5.516069442967274500e-02
5.874730773784177934e-02
6.174564035526355910e-02
6.207211100329756287e-02
6.260074161588487229e-02
6.377042936862838129e-02
6.147650029534541816e-02
5.707546559696798777e-02
5.226359842526336064e-02
4.502112064644820527e-02
3.677126469844165663e-02
2.827335528193005224e-02
1.707887644950024930e-02
4.872114334737883551e-03
-7.613867727896912740e-03
-1.844091648068055603e-02
-3.063396340723286912e-02
-4.611863250074722809e-02
-6.097570028398348330e-02
-7.412905052603273315e-02
-8.982083562371660779e-02
-1.050567693479410869e-01
-1.198457550087519419e-01
-1.368446314349939519e-01
-1.514269749046206204e-01
-1.676708765539158541e-01
-1.794905177894621784e-01
-1.918686396361337920e-01
-2.013230566196421711e-01
-2.081348621384794262e-01
-2.131391896580395184e-01
-2.116975704136422332e-01
-2.082907455431873278e-01
-1.993849404829277638e-01
-1.884009907099069847e-01
-1.685761966338439055e-01
-1.501039391714149296e-01
-1.209484766673728784e-01
-9.116157742897947058e-02
-5.458765415925154879e-02
-1.598430133953494814e-02
2.624708263212723047e-02
7.526437828298293553e-02
1.206911458361775991e-01
1.780084712578974271e-01
2.237592840528382920e-01
2.879658964540821042e-01
3.345268019128710413e-01
3.990239237194438959e-01
4.484453555476550779e-01
5.068660401777261848e-01
5.576536956814203139e-01
5.986613665651895344e-01
6.487960682824411851e-01
6.653488153875113387e-01
7.117622307772740742e-01
6.979794331841535637e-01
7.283798214034666874e-01
6.839687740743637390e-01
6.846909428050369506e-01
6.205094180897456901e-01
5.704306505314014064e-01
4.972944482163492164e-01
3.760073124765030417e-01
3.020791515278996031e-01
9.919902097557195542e-02
2.596786676308317915e-02
-2.518687511126364020e-01
-3.446295617278603007e-01
-6.667140162392147795e-01
-8.205507296345871948e-01
-1.132139890037971330e+00
-1.405840547092992443e+00
-1.636756139485335826e+00
-2.091333680024273445e+00
-2.171238639135977255e+00
-2.849810470757417225e+00
-2.738478059282015931e+00
-3.640953233532818079e+00
-3.357335886411421555e+00
-4.390865014180932668e+00
-3.819040060634220968e+00
2.807488009172213417e+00
3.231875371179449452e+00
2.216007376339766743e+00
2.572028330871732216e+00
1.746158794460409336e+00
1.962883539037805880e+00
1.384654956287247440e+00
1.453155227301295094e+00
1.121429640498019520e+00
1.080271980029053669e+00
9.566938099883410818e-01
8.656704024186974156e-01
8.951997227246699662e-01
8.123348273248360840e-01
9.473176678640933268e-01
9.059305446868539669e-01
1.118823946195849350e+00
1.128275815291307715e+00
1.407147809465267185e+00
1.456008611806975717e+00
1.796354361172438185e+00
1.870777033616903395e+00
2.257925960518575526e+00
2.158012262676520798e+00
5.854770490344398670e-01
2.662427839820570297e-01
1.793524923890565392e-01
-2.564859971009356698e-01
-5.301744830113195306e-01
-9.655891030414482934e-01
-1.279585139517278813e+00
-1.618798879463226648e+00
-2.091450029150240475e+00
-2.179766706327433745e+00
-2.365849919090052822e+00
-2.213028927941033785e+00
-2.045126521829892852e+00
-1.932832444748997958e+00
-1.938030857689810205e+00
-1.934638707133854441e+00
-1.529848062413120546e+00
-1.947956422385072495e+00
-1.868971946015845376e+00
-2.932172243175747539e+00
-2.588337423153169059e+00
-3.615340833763356798e+00
-3.245394533537920623e+00
3.344173871360915928e+00
3.835612765924775402e+00
2.824751664573532217e+00
3.197055977317065700e+00
2.332331797573521825e+00
2.499325568290522881e+00
1.844396774665071348e+00
1.798530390841162951e+00
1.359775515074744812e+00
1.145804910246416064e+00
8.859108117951066674e-01
5.824214588164156048e-01
4.419538509845009067e-01
1.269612584429942181e-01
5.258581278931551140e-02
-2.096557471879798573e-01
-2.516364886122894884e-01
-4.243662296977477322e-01
-4.484849566994608683e-01
-5.172643046852902771e-01
-5.178023567989629150e-01
-4.891130450593669243e-01
-4.540112738414274762e-01
-3.428607226172182831e-01
-2.606806946370724964e-01
-8.115532986442797192e-02
5.590006740923408879e-02
2.882070150201865855e-01
4.802965576635569445e-01
7.568367267938911347e-01
9.949328609975784943e-01
1.309631173389845582e+00
1.591466741455482392e+00
1.934185429525859146e+00
2.245090215282944612e+00
1.457159128393086256e+00
2.481336812232413924e-01
-5.619928075923829036e-01
-1.120171512917800483e+00
-1.447831388488208582e+00
-1.637013700772129265e+00
-1.697428154629336827e+00
-1.675251314092547350e+00
-1.586848730415111319e+00
-1.457292114550043927e+00
-1.303187593991832482e+00
-1.128704200717402184e+00
-9.514423749101086347e-01
-7.693893723771698667e-01
-5.959434952722237888e-01
-4.275687002502797096e-01
-2.723625239396266773e-01
-1.272794685056494179e-01
1.984035937880546108e-03
1.165556626162694842e-01
2.166406283225141560e-01
3.003146350858663105e-01
3.698454981719306311e-01
4.247610268912765386e-01
4.650770925051951332e-01
4.928977598221862544e-01
5.100986994144366404e-01
5.142270661797962994e-01
5.108344982914490018e-01
4.970980627090271220e-01
4.771853253457235544e-01
4.513737453422230761e-01
4.195812162351542085e-01
3.834173508703783151e-01
3.449842319562401727e-01
3.040205681844458940e-01
2.603957747378912169e-01
2.241917884434060371e-01
1.861179804311640096e-01
1.465453313361283483e-01
1.098846076799275817e-01
7.482708619029937447e-02
4.374398321085404273e-02
1.324532172863190915e-02
-1.392370689240307602e-02
-3.894168406786793768e-02
-6.095389655737236401e-02
-7.893531500653835908e-02
-9.544105641504317672e-02
-1.079521348534712571e-01
-1.158685713093090680e-01
-1.216870984124756860e-01
-1.250688099658615882e-01
-1.245707050202205790e-01
-1.238696357720461549e-01
-1.208423125228994532e-01
-1.150402996339099926e-01
-1.110963403195790455e-01
-1.037085440595783004e-01
-9.431361957626366310e-02
-8.878512370148911037e-02
-8.214793813387788468e-02
-7.501225825198981623e-02
-7.011688983721459101e-02
-6.541191712156901872e-02
-6.289938088051680309e-02
-5.956470675117042646e-02
-5.686747999351399185e-02
-5.675526945294970260e-02
-5.484618957381692805e-02
-5.594009071602412675e-02
-5.870676203659692949e-02
-6.155348626135807855e-02
-6.585897040975045857e-02
-6.972712709605852210e-02
-7.479027841858883197e-02
-7.997742272449701040e-02
-8.517016413452228873e-02
-9.083444978217368460e-02
-9.509450269919554610e-02
-9.710722550873085446e-02
-9.804083272191102538e-02
-9.618233288609441545e-02
-9.207951834776365030e-02
-8.629199690379275867e-02
-7.590564646968535334e-02
-6.221632290589721587e-02
-4.551968161270128488e-02
-2.675775784320041928e-02
-5.061288641629399510e-03
2.032166354511880102e-02
4.812570604465949559e-02
7.825697718406973702e-02
1.094941320641346916e-01
1.432045421952687081e-01
1.781194871818418679e-01
2.132992599844717174e-01
2.495566855165251285e-01
2.850875041837286905e-01
3.184190594619253911e-01
3.513227775249267992e-01
3.823234923190750867e-01
4.094639497078974011e-01
4.327275772952895450e-01
4.490153382689743289e-01
4.603430120762578293e-01
4.617989447905044842e-01
4.545267890870481886e-01
4.374949539803410503e-01
4.085492463755605042e-01
3.682580524190995908e-01
3.136586687322389655e-01
2.459853357178294619e-01
1.615406536491136580e-01
6.541776937724323726e-02
-4.776588009234372656e-02
-1.737064816321699789e-01
-3.198946986689532035e-01
-4.767476420869314890e-01
-6.464746725409400430e-01
-8.324678302094239424e-01
-1.030620998483364970e+00
-1.234924082097733411e+00
-1.417912555533496155e+00
-1.620933579506166566e+00
-1.540565638033504214e+00
-1.163476671899579262e+00
-9.248900521124885366e-01
-6.856816208488064612e-01
-4.579776951644471961e-01
-3.131789532449775204e-01
-1.465845557683737033e-01
-1.016554751310302374e-01
-6.418500023995780956e-02
1.909611541524136591e-02
1.727742764316234081e-01
3.733392451452226535e-01
5.286686552670797345e-01
6.980110723403269990e-01
7.932204914269043172e-01
8.903908779998582768e-01
1.011349818287733182e+00
1.082106735786122931e+00
1.104446900170956702e+00
1.087831031196228704e+00
1.068722829596762125e+00
1.054136771234380765e+00
9.538994264678098967e-01
8.179518706671990991e-01
6.323563401539044060e-01
4.675513998600445698e-01
4.499364288152395419e-01
4.072121480511269875e-01
4.734643140414312446e-01
4.930505853275658490e-01
5.478797781433707437e-01
5.175782167866821437e-01
5.772328090791613020e-01
6.394639007700794187e-01
5.502696132236117865e-01
4.776921001664894417e-01
1.949337264122839863e-01
2.923546146333111384e-02
-3.668838269611371383e-01
-5.727362326316434160e-01
-1.055323292444359407e+00
-1.419737620183732174e+00
-1.895735641816161055e+00
-2.218567690059210396e+00
-2.416314443787769051e+00
-2.867348778255877750e+00
-2.829339718925248270e+00
-3.461730006025163675e+00
-3.192110821210460081e+00
-3.935741864268161638e+00
-3.381403706408482979e+00
-4.344550455210932860e+00
-3.854011891901093279e+00
3.192786638841286440e+00
3.998779820274847019e+00
3.406133671253575468e+00
4.057031654486293881e+00
3.687046213501695036e+00
4.103597219072067759e+00
3.997693637282209167e+00
4.179575490158798701e+00
2.276803214769842931e+00
1.760556825213233978e+00
1.628744366629182760e+00
1.138782018715921662e+00
1.141515755020590994e+00
7.991042278923148334e-01
7.853273502554751762e-01
3.407890909331001694e-01
1.920124834329230978e-01
-1.649881824075120074e-01
-4.143118536663825680e-01
-6.809587921551092382e-01
-9.560341588693631598e-01
-1.213078181717825998e+00
-1.483745266168012611e+00
-1.566494840573076530e+00
-1.654772121358254022e+00
-1.592436773052854138e+00
-1.593511610651553223e+00
-1.453483683115102787e+00
-1.358058216452946887e+00
-1.176207780023573735e+00
-9.860298631354715848e-01
-8.642980728976488169e-01
-7.430276250689658024e-01
-6.793848537786528752e-01
-5.957282796649503442e-01
-5.790367204056100503e-01
-5.633997962369269308e-01
-5.983953769626839669e-01
-5.804393863130427045e-01
-4.920529869010342727e-01
-3.340329010479028415e-01
-1.189624607139719292e-01
1.220990327174265450e-01
4.245418620789283004e-01
6.845921177314236994e-01
9.820796002859782936e-01
1.358414657677543769e+00
1.720207429339107197e+00
1.991974902026067085e+00
1.963737553931225399e+00
1.705605890202312569e+00
1.465015574972369894e+00
1.227168011566716954e+00
1.001354979151494184e+00
7.866363353120331414e-01
5.791408943072122728e-01
3.892757178704429055e-01
2.053009982656150978e-01
3.968192291445638009e-02
-1.185642242207475272e-01
-2.570840222758499216e-01
-3.880675044422420839e-01
-5.022596622442785375e-01
-6.042844217536430529e-01
-6.919994090681833576e-01
-7.659219679475695042e-01
-8.294310690866837366e-01
-8.734341250025943193e-01
-9.126084874457627283e-01
-9.293143388647548964e-01
-9.419064915806373284e-01
-9.319805513069436831e-01
-9.170013536747084748e-01
-8.816004374275903110e-01
-8.369814112312738974e-01
-7.789016943515562064e-01
-7.003301478628719545e-01
-6.196158905611218737e-01
-5.066071339830834352e-01
-4.033256369036709588e-01
-2.558158114049488008e-01
-1.249486301087904261e-01
5.050016540392904263e-02
2.147390339566951634e-01
4.113270801049492276e-01
6.185781612732195178e-01
8.229777126357036288e-01
1.080601642019239250e+00
1.283252343096325854e+00
1.594606517966488335e+00
1.788135231522917534e+00
2.149730386159848905e+00
2.337146891684154681e+00
2.735806959144870820e+00
2.922599342782813192e+00
1.438398387198794870e+00
2.089466392157084407e-01
-4.693146359833662018e-01
-1.073133874921542441e+00
-1.321784674968714102e+00
-1.558397667567898992e+00
-1.585696802990696153e+00
-1.605822527900334862e+00
-1.530518066302680058e+00
-1.433423114992195213e+00
-1.307250594012778988e+00
-1.151917417932762033e+00
-1.012549550931322262e+00
-8.402485799681047585e-01
-6.994801568974617911e-01
-5.371652515063514155e-01
-4.054817150609889564e-01
-2.659594135016720706e-01
-1.502702641453159682e-01
-4.088459124932253275e-02
5.201350615829158919e-02
1.378271766167616930e-01
2.168958829044071723e-01
2.752765945918286272e-01
3.302540725065695737e-01
3.646325906942645134e-01
3.972392256986213566e-01
4.114142244173344953e-01
4.225779691102770630e-01
4.216792973955719726e-01
4.150676983597216818e-01
4.013975902241407878e-01
3.812523704928961754e-01
3.583304218612219927e-01
3.285717663172837977e-01
2.997012732863210127e-01
2.650924805767611581e-01
2.308613837254233081e-01
1.945020895683274853e-01
1.595022161970086616e-01
1.233963756103151344e-01
9.063605116457684741e-02
5.927873318119525337e-02
2.683240078580251264e-02
-4.120497879875339997e-04
-2.372802774962587402e-02
-4.415048815711317132e-02
-6.423385934608026593e-02
-8.006049751704583106e-02
-9.528165702564576900e-02
-1.074902329160586645e-01
-1.153739031492503897e-01
-1.226665895795368277e-01
-1.262340216553103078e-01
-1.294777489631186718e-01
-1.297489593363899962e-01
-1.264347508777467766e-01
-1.229807493196743706e-01
-1.181025046827861857e-01
-1.131405640889004416e-01
-1.053032206094382806e-01
-9.492466031808058369e-02
-8.306009665939981246e-02
-7.068211518588946030e-02
-5.883566746630752853e-02
-4.775889332730054448e-02
-3.957342004881100883e-02
-2.942929955405579334e-02
-1.844475801231987289e-02
-1.003078818209435230e-02
-4.109122106148374587e-03
1.240923992476855586e-03
7.610518812298003311e-03
1.284520607773511486e-02
1.793922911068931286e-02
2.320833477001021244e-02
2.737312854710601331e-02
2.971069589113839796e-02
3.242500418425486169e-02
3.508623831252345726e-02
3.652931506369495179e-02
3.772058909928214382e-02
3.841806000609249150e-02
3.803774408131199714e-02
3.755572247246627415e-02
3.684194776073580757e-02
3.378202271721322814e-02
3.109085773651916462e-02
2.792105735896220631e-02
2.448339094071638744e-02
2.142578346150438018e-02
1.681661099503885259e-02
1.151922838118611681e-02
7.835102767862603401e-03
6.940269973327348185e-03
4.947951801926753213e-03
2.824455870797784596e-03
1.659304236069011895e-03
3.333892999382269406e-04
-1.838798329052090258e-03
-2.993595850523510932e-03
-3.177078941555635389e-03
-4.857284358853717482e-03
-5.856845471288155483e-03
-7.516143482853965448e-03
-8.946266166766983496e-03
-1.069234449244807136e-02
-1.189563995588698367e-02
-1.188541118223149576e-02
-1.323107487099614392e-02
-1.312658512566334049e-02
-1.246478989146701001e-02
-1.164083740171818065e-02
-1.007745952675309989e-02
-8.529883882173142085e-03
-6.862270535235678870e-03
-6.188340653167399147e-03
-4.882800844983433558e-03
-2.823216772880336040e-03
-1.996900381304449190e-03
-8.142218072136695600e-04
-2.226720120505169820e-04
-5.918944530493921996e-04
-5.898648387537772098e-04
-3.095848706127432570e-04
-5.685912019803831749e-04
-1.953986600778387546e-03
-1.153918149800064151e-03
-4.011971508528131523e-04
-1.090771245967096445e-04
1.774711602994887959e-03
2.885349611457661140e-03
3.950398209441377366e-03
3.979284202922611473e-03
4.871847911743457105e-03
6.416292511793959298e-03
5.868827105817610822e-03
5.402399504715886709e-03
4.093769320666605822e-03
2.584932326544268910e-03
1.208346713456712011e-03
5.795411016017220848e-04
-4.846282697583016025e-04
-2.177891653080739169e-03
-1.266630835935101014e-03
-1.130284867755978681e-03
-4.674035670599102285e-04
2.375985789603548073e-04
3.180695237082649396e-04
1.013145455576263797e-03
1.420760212771943372e-03
2.523980478528002266e-03
2.531510237510769569e-03
2.536607409036719177e-03
1.740623223238698964e-03
1.369665043185361048e-03
6.861656335396800008e-04
-1.319248019327862523e-03
-1.889914730728947971e-03
-2.661539416031816294e-03
-3.069785524186114875e-03
-3.004922709551113326e-03
-2.524550451642317700e-03
-1.723650768771521668e-03
-2.623533341471590528e-04
5.293795308345871850e-04
1.565218195110711606e-04
8.543911079188629999e-04
1.602655561042913221e-03
2.147168543244645962e-03
1.796298971276868821e-03
1.188135701706714105e-03
1.356810002823247022e-03
2.286122548679995342e-04
-1.667770979442689556e-03
-1.697932476280332968e-03
-2.145389659286902131e-03
-3.946631500436199348e-03
-3.630959354212781078e-03
-2.650942226627588105e-03
-1.951922955940665200e-03
-1.022194435016560892e-03
-6.555162170982275008e-04
3.036601497663602052e-04
1.867729156455145327e-03
2.297429298858665384e-03
2.087122146471621573e-03
2.062649539978602363e-03
2.275779102392134611e-03
2.167871790586553288e-03
5.325937568970984248e-04
2.643497603475788299e-05
1.124114557805701645e-04
-8.349421600362815117e-04
-3.132793058987773036e-03
-3.643277169885473198e-03
-1.129949904010308119e-03
-2.636437724770835300e-05
3.376349328143863487e-04
5.973550341607217120e-05
1.260487937846692255e-03
2.122616299602744436e-03
2.258422308737169891e-03
2.341501508595334857e-03
1.695383256226495059e-03
1.070970822104558556e-03
-7.670704063597201918e-04
-1.033487679351405676e-03
-2.552019088393496938e-03
-3.020140215621125272e-03
-2.995784620693636713e-03
-2.991581458953704569e-03
-1.105491623147288440e-03
-1.309655622201904212e-03
-7.992900045228823122e-05
1.671901769907825804e-03
2.655935165641539007e-03
4.972265930506324788e-03
6.757196615317873079e-03
5.052748165914640668e-03
2.848074491545097946e-03
1.603840685406843951e-03
5.326359065607885138e-04
-2.119617816433996219e-04
-8.807690535329751411e-04
-2.001214692651193203e-03
-3.677826886227233884e-03
-2.491521666612601937e-03
-1.754302160353644110e-03
-4.285991179923784485e-04
7.151598260230015601e-04
1.247894819252293001e-03
1.819478131198897907e-03
5.682056619527627982e-04
1.898102614633505152e-03
2.339382181027993904e-03
1.279064654601240296e-03
-1.803504836769505293e-03
-3.904721034258712507e-03
-4.113846996164351524e-03
-4.970076733565257504e-03
-4.240425974036678494e-03
-5.131928416781147799e-03
-4.733297312415277701e-03
-4.691083676295167842e-03
-4.289651861244751091e-03
-2.646103281297475240e-03
-1.933618053072648502e-03
-5.664056946482801634e-04
-5.478204136126307681e-04
1.257328855767733200e-03
2.788210878307949975e-03
3.805829222164289725e-03
4.888212496747838462e-03
3.860460765593969751e-03
2.887661143743624342e-03
1.733684226148474172e-03
6.698445855298266159e-04
3.100571305347608192e-04
4.894554275575776353e-04
8.656374026270287694e-04
1.682006234265361012e-03
1.457921253754368256e-03
2.275595500428999503e-03
3.357943881614945062e-03
3.826318386843550676e-03
4.283927753090586293e-03
3.060730690110544452e-03
3.866031196958257237e-03
4.436975013054926184e-03
3.967066605030062504e-03
4.055605432499558190e-03
3.861939618343360452e-03
3.173827351728175390e-03
3.470320581236775986e-03
1.761080733866190193e-03
-4.883351117046200607e-04
4.228183422180054420e-04
-1.283742422392484747e-03
-1.210939812158437143e-03
-8.346753862693962432e-04
2.831251351323427722e-05
2.634612462237785526e-04
-7.197838683598569917e-04
1.436245067444609849e-03
7.372211623407382182e-04
1.831492190019334138e-04
-2.293221956129096271e-03
-4.388875881838283366e-03
-5.823424263853562051e-03
-8.662189063578400183e-03
-9.361073206569127392e-03
-1.125229209929304308e-02
-1.303475703143687665e-02
-1.460374225096889092e-02
-1.503964103896658980e-02
-1.597514730131208149e-02
-1.615655050617829588e-02
-1.452948494126904064e-02
-1.332091415346800881e-02
-1.264154716377137271e-02
-1.153362524013536346e-02
-8.520393916041391416e-03
-8.094556782430595288e-03
-7.497972693335636617e-03
-5.808132707161703032e-03
-5.955349316067032328e-03
-5.275075590335792999e-03
-4.209531976327767627e-03
-2.658624644526660832e-03
8.797717596187302255e-04
5.470303752541078209e-03
1.107517320055714793e-02
1.664904080319470903e-02
2.128554086376539117e-02
2.605736254329607537e-02
2.857663512516030874e-02
3.327885243819658084e-02
3.893251804343184075e-02
4.070468356078510430e-02
4.409025091971556509e-02
4.583151184071341394e-02
4.569604255069741050e-02
4.579480568121074152e-02
4.535923149469094778e-02
4.448005340830287618e-02
4.115602085265276239e-02
3.904113510571546181e-02
3.765795336985486991e-02
3.571583725170746765e-02
3.375426670234797644e-02
3.056872092637583083e-02
2.495621288803628879e-02
1.759565703258119534e-02
1.084923590016036166e-02
2.941281519957756121e-03
-7.112616521179758629e-03
-1.887079610777171040e-02
-3.039141946718144915e-02
-4.302019560299663592e-02
-5.592820986960827384e-02
-7.014739450045578972e-02
-8.610023583435916228e-02
-1.024994216128996688e-01
-1.161717968769114678e-01
-1.207842091414597641e-01
-1.243530510409373568e-01
-1.260543795056973948e-01
-1.304550502825777003e-01
-1.375109806369230192e-01
-1.419430601365741229e-01
-1.407589037458710779e-01
-1.405803310734430600e-01
-1.416558303500678462e-01
-1.379668471437919819e-01
-1.365224863468234850e-01
-1.245406538592743750e-01
-1.165258538315606940e-01
-1.044810418160694310e-01
-8.821914706157281405e-02
-5.911254607730331845e-02
-3.137189929772916247e-02
-1.349191689218109686e-03
3.955799350400471953e-02
7.640333795290212004e-02
1.202283564554391532e-01
1.490570692839302824e-01
2.015072977072374649e-01
2.384739160053982454e-01
2.892367464202573180e-01
3.236775149244912608e-01
3.676070659708480792e-01
4.038569354383509946e-01
4.344972982427028341e-01
4.745200650180638191e-01
4.814854029272237490e-01
5.219413838356640190e-01
5.032542626818092835e-01
5.374496868228734181e-01
4.978463554772871169e-01
5.079796970036093429e-01
4.553805002035341554e-01
4.234391382715055330e-01
3.707479078664960292e-01
2.748246681076362274e-01
2.327797731282129079e-01
6.237111032596895366e-02
2.861131536377648638e-02
-2.154915369613711329e-01
-2.645644124905897621e-01
-5.520105554104559609e-01
-6.569974240056141168e-01
-9.236631646498206782e-01
-1.143868853633151828e+00
-1.322659464942165020e+00
-1.730194484423448698e+00
-1.752942059639932104e+00
-2.396083887449034666e+00
-2.222373941299274680e+00
-3.104674967702864663e+00
-2.752349539623573094e+00
-3.794758413409458964e+00
-3.274174429081504023e+00
3.455398989897648931e+00
3.888991561446594858e+00
2.830612783821632839e+00
3.186360756072546430e+00
2.304366310589965217e+00
2.475316427379020467e+00
1.827427167230122995e+00
1.799009181581343819e+00
1.382438398095281018e+00
1.192614231673441383e+00
9.598690160232212776e-01
6.790818753803564700e-01
5.620780828535527629e-01
2.621109284544702600e-01
1.977774438021995262e-01
-6.168651575791406216e-02
-1.176936336052551990e-01
-3.061308336323097512e-01
-3.738903463279216188e-01
-4.851758039979020554e-01
-5.623395836096737321e-01
-6.089286845446719720e-01
-6.820457208894538104e-01
-6.858825984981020696e-01
-7.382745646633326331e-01
-7.189617539625785536e-01
-7.376260679248959340e-01
-7.110639296477379023e-01
-6.895084380769169741e-01
-6.601804866284016748e-01
-6.052111666340169727e-01
-5.714458140843314826e-01
-4.931906557443455075e-01
-4.445194707109042520e-01
-3.592773262093617026e-01
-2.845963760973494461e-01
-2.076099804884556921e-01
-9.675991310628628828e-02
-3.370886087143021292e-02
1.123972923911341071e-01
1.633604700520801811e-01
3.332874984062701440e-01
3.916404907445543704e-01
5.576852621368854068e-01
6.533736448531540786e-01
7.781915440875682988e-01
9.479199498782100441e-01
9.956380353000575667e-01
1.267404646670698742e+00
1.219334547685476666e+00
1.596550423229392557e+00
1.461573652657939038e+00
1.912570793646465539e+00
1.744433902123268432e+00
-5.659245613892871507e-02
-8.334943452435139566e-01
-1.173018442024691410e+00
-1.778912165004916890e+00
-2.414423177826859668e+00
-2.635725544806347465e+00
-3.087078821768667769e+00
-2.875507789246985357e+00
-3.642597058935223231e+00
-3.375616243257332894e+00
-4.444806729246988830e+00
-3.687682987916607757e+00
3.459178781575384054e+00
4.420927196970460216e+00
3.816676023737169299e+00
4.664994566897624928e+00
4.239460958748029640e+00
4.078663355082467135e+00
2.258490041253830238e+00
1.426007996911593079e+00
5.020569185078616048e-01
-1.531884792921189842e-02
-3.822133302346737427e-01
-7.229366792040130552e-01
-7.786595179331772254e-01
-9.919370281543675727e-01
-9.045028971377330196e-01
-1.017150487417504579e+00
-8.887398431468680471e-01
-9.052113502885197338e-01
-7.912705345685403513e-01
-7.384933966680637951e-01
-6.542973597132001329e-01
-5.529166550675513880e-01
-4.949316019292752111e-01
-3.771422997529794152e-01
-3.334012732305851046e-01
-2.236664448995470122e-01
-1.847353314314080786e-01
-9.487032051590477133e-02
-5.351422544956913052e-02
1.034847579683284557e-02
5.185968617891967281e-02
8.890499857169745224e-02
1.278907208570971288e-01
1.481203311405017986e-01
1.823474725301648947e-01
1.877216378162001598e-01
2.053591283611066742e-01
1.991891079846300483e-01
2.063022134986563783e-01
1.995698498495061535e-01
1.947505735748983891e-01
1.850103369315524993e-01
1.738617111562192896e-01
1.639082721817067823e-01
1.488043208308553744e-01
1.377578185285291412e-01
1.199274852054715845e-01
1.070110292555798148e-01
8.923885707389123123e-02
7.597099128042447691e-02
5.951995333831053281e-02
4.519441225879344826e-02
2.956907714802980980e-02
1.428643836185608529e-02
1.644004823740996546e-03
-1.134947572722536102e-02
-2.142073206095387872e-02
-3.268025515733345709e-02
-4.007057232337940533e-02
-4.696499945215857480e-02
-5.189981164099323474e-02
-5.504528728710179897e-02
-5.708528290047080317e-02
-5.898667034286061983e-02
-5.896966789135442422e-02
-5.812539570916479270e-02
-5.786995968787750355e-02
-5.542999860336918216e-02
-5.453533714046623904e-02
-5.357723766653194053e-02
-5.071271878462375871e-02
-4.846383128777054239e-02
-4.586210129063583718e-02
-4.268262690015006688e-02
-4.032407128947161634e-02
-3.744578198537924785e-02
-3.367568327861096555e-02
-2.870309785306660033e-02
-2.406870401731987796e-02
-2.032838339183476450e-02
-1.627431480830478921e-02
-1.156714637782969152e-02
-6.568861216912476320e-03
-2.195194128275720913e-03
1.794514140272256142e-03
5.532043365510264793e-03
9.821797322225690741e-03
1.264610793929578890e-02
1.534480179016185081e-02
1.892642257062204791e-02
2.103736004380804894e-02
2.350790094445407569e-02
2.569703477452320306e-02
2.774375335648368232e-02
3.001170016616850136e-02
3.163808882977180853e-02
3.460479140456959590e-02
3.672420588508940043e-02
3.679936746756472254e-02
3.897458514839938215e-02
4.123060869612737989e-02
4.135353482667929181e-02
4.214544560087214731e-02
4.288582684533004397e-02
4.272515412895018516e-02
4.286273203824626093e-02
4.191243706375831490e-02
3.990744683300317258e-02
3.798575151271306460e-02
3.523196324752457531e-02
3.246539209871468490e-02
2.849640031724139447e-02
2.437256391543516504e-02
1.914149111957096777e-02
1.221855475854711180e-02
4.823820745879739413e-03
-4.649662203214719944e-03
-1.146002119667043767e-02
-1.859666572121249431e-02
-2.776789147264880839e-02
-3.812440625169782882e-02
-5.025413499587411126e-02
-6.049926755040015841e-02
-7.157885234742149272e-02
-8.301890937408326621e-02
-9.311042216115426873e-02
-1.014217228413578503e-01
-1.095006101043390356e-01
-1.173263992545386242e-01
-1.232225151213295761e-01
-1.286362785934804798e-01
-1.317803582957453035e-01
-1.338104956666809897e-01
-1.336117730083287714e-01
-1.323022694926565268e-01
-1.311151393337654514e-01
-1.250237354193392270e-01
-1.163166140220226602e-01
-1.048519753841378882e-01
-9.034859954522529712e-02
-7.321300566467553450e-02
-5.268547055605160567e-02
-2.898608153648041946e-02
-1.320875544552698941e-03
2.747291898611524744e-02
6.031368853613344044e-02
9.579543653247718504e-02
1.309474344847170735e-01
1.677579289435829346e-01
2.072078070663322114e-01
2.452304072672527868e-01
2.813459980104921487e-01
3.169887732476253106e-01
3.496468940420383031e-01
3.806631020002108068e-01
4.064228182348393337e-01
4.293734773722570064e-01
4.441900172003410141e-01
4.529475209485429588e-01
4.545565430319433720e-01
4.476005198581851641e-01
4.320768374150659730e-01
4.038053918972112633e-01
3.659505737387422908e-01
3.102979064320010583e-01
2.469247098622396885e-01
1.651652383387526291e-01
7.104411314399594612e-02
-3.949185378055285883e-02
-1.665381581400678102e-01
-3.094603926209261724e-01
-4.710119968325731099e-01
-6.439201365224852536e-01
-8.384499953798959515e-01
-1.033899189838351385e+00
-1.251040594832176778e+00
-1.444037286301344425e+00
-1.673865741045861277e+00
-1.770264323813979468e+00
-1.485817415003528819e+00
-1.141670068344246669e+00
-8.083250565778924424e-01
-4.137473704603499280e-01
-8.070895148024026522e-02
2.208257154661675825e-01
4.494191721026949415e-01
6.151160115608511614e-01
7.564537590923838817e-01
8.589539488173822956e-01
9.469708682678652512e-01
9.498329846861068848e-01
9.221031533572183747e-01
9.462493458128214963e-01
1.098603137569669874e+00
1.203777395017761709e+00
1.000703282273459838e+00
7.780254783477345004e-01
6.057858515352287920e-01
4.219515685104406888e-01
2.803263645347163768e-01
1.381831014620114040e-01
2.835397403845307807e-02
-7.210846484744304341e-02
-1.505553987754971179e-01
-2.114258272488990509e-01
-2.580524008682101300e-01
-2.846310427286919964e-01
-2.986907885899862669e-01
-2.944448672083990193e-01
-2.794829499309677279e-01
-2.504805105301328716e-01
-2.083750907298524413e-01
-1.589635795878601154e-01
-9.524625770846684158e-02
-2.788898527593730581e-02
5.160267701106036053e-02
1.333084848483480633e-01
2.224857170239190607e-01
3.144329414280951362e-01
2.864468807603835487e-01
2.143138503300291431e-01
9.941192223912526105e-02
-7.508544822718576928e-02
-2.697250872018962520e-01
-5.447813216252865853e-01
-7.479557744529090613e-01
-8.167610071190102294e-01
-8.065809234081937618e-01
-7.459336146020181246e-01
-6.638718315146467930e-01
-6.213263663767094602e-01
-5.292413719350457235e-01
-3.263224332351129520e-01
-1.670449486241032400e-01
-5.710308255092233498e-02
3.312683784197467673e-03
4.673516908224423227e-02
1.102309995553983762e-01
1.641192209586601336e-01
1.883896863138731226e-01
1.436600176095957915e-01
1.016475586826993405e-01
1.261316558637421981e-01
1.910598434884789865e-01
2.876585326802558185e-01
4.398612283703633441e-01
5.932266627120675873e-01
6.346322050909485313e-01
6.973487255773996862e-01
8.210246860463885632e-01
8.728112749581272700e-01
8.703164351506194052e-01
7.744166655315543046e-01
6.489615355040112554e-01
4.421479427650751304e-01
1.735783768627492396e-01
-3.137544262280966834e-02
-3.065959888473853701e-01
-5.443820723825181229e-01
-6.674900699268168092e-01
-6.948704824661133816e-01
-6.195467477050526917e-01
-5.575591238528688764e-01
-5.085626418409104899e-01
-4.543291229380290730e-01
-3.158079707145872717e-01
-1.015994946904880125e-01
3.837844736423234870e-02
1.177108377369952552e-01
1.428173961718713358e-01
1.370777186881971810e-01
7.111193589640107948e-02
-2.311818237174603774e-02
-1.091844728341927473e-01
-2.475756042868798579e-01
-3.015326416195475145e-01
-3.049878475863147531e-01
-2.516308455613751605e-01
-1.693094277572415041e-01
-1.259208464727915588e-01
-8.633335293450643266e-02
-6.719456192928432992e-02
9.283394090024177370e-02
2.599918663283000142e-01
3.170826894354547010e-01
3.119812784963793550e-01
2.489973124045824493e-01
1.970579765720412435e-01
1.187831677777022032e-01
3.265626968599810720e-02
-8.999001866279365824e-02
-2.342103990597568797e-01
-3.228344113183997388e-01
-3.224604736368855695e-01
-2.576073168424453108e-01
-1.709250898813426678e-01
-6.436036491993296638e-02
1.009192889745560290e-02
1.376895089236852832e-01
2.900255718803403937e-01
3.733361188087472304e-01
4.214794441111914258e-01
4.093200799819279867e-01
3.752650911144531642e-01
2.824239557232652853e-01
1.668070918227603505e-01
6.120277052989817057e-02
-1.355015472767191476e-01
-2.848066855109664397e-01
-3.214374835701578337e-01
-3.025970220486771667e-01
-2.372086030069454898e-01
-1.615172723239343133e-01
-1.063790457085984215e-01
-7.223064645205630463e-02
5.136911963386377178e-02
2.183599483244296757e-01
3.102141570662010905e-01
3.499352116712235450e-01
3.597260126705131844e-01
3.153082304405172565e-01
1.808908520847624102e-01
6.398440473787862792e-02
-4.936865601793931357e-02
-2.163910312575059169e-01
-3.182775433307321600e-01
-3.396109040571742566e-01
-3.075671868215890670e-01
-2.427126398800839580e-01
-1.474432444020609134e-01
-7.793577422330133508e-02
-5.706943218727389411e-03
1.445436868919963425e-01
2.597504435161876457e-01
2.984832214229288239e-01
2.543484226763659817e-01
1.715485762225712751e-01
8.872344528420764154e-02
-8.022470932889569709e-03
-1.117842883472069115e-01
-2.873828495197087718e-01
-4.504994243623061112e-01
-5.177776759951367991e-01
-5.391462313878606638e-01
-4.842111117863515668e-01
-3.546269722315364414e-01
-2.160415995864450045e-01
-1.087121595502675842e-01
2.039613721265273738e-02
2.118057475005379886e-01
3.735005580259891378e-01
4.642793790456007930e-01
5.051638720009036243e-01
5.014185933240393744e-01
4.493654940330912284e-01
3.592430786638253215e-01
2.222918691912714184e-01
7.463200433880284868e-02
-2.908197493254133237e-02
-1.375967501647243907e-01
-1.982852332489540848e-01
-1.594897056627892495e-01
-9.672426777347989391e-02
-3.912459423182657742e-02
2.756650407195421204e-02
1.346092664988705334e-01
2.701887286203166205e-01
3.540239282374188501e-01
3.575972295853966365e-01
3.145029243756602977e-01
2.178590067164741795e-01
5.083494366935087383e-02
-9.163478077059947213e-02
-2.098475766790270924e-01
-3.843677810901633407e-01
-4.967177745953611501e-01
-5.126158683079700129e-01
-5.020795186354792827e-01
-4.263315292614661689e-01
-3.151719705636606417e-01
-2.311434808531823426e-01
-1.421760301199064547e-01
-9.858039199479556869e-03
1.137327430490495533e-01
1.471027872032484307e-01
1.368037888545645120e-01
9.928887607813116634e-02
2.153682685129586910e-02
-6.922817092912514347e-02
-1.928950097467343194e-01
-3.449976284319715703e-01
-5.032727853194305379e-01
-5.646920132769134293e-01
-5.645307541411312968e-01
-5.086588550252479912e-01
-3.587076190925322927e-01
-2.541488723040483677e-01
-1.474804072872482053e-01
3.241868412204135241e-02
2.525752300917356585e-01
4.501900943449866355e-01
6.168811755069065761e-01
7.433402388893687318e-01
8.580433949666651516e-01
9.772839311258219031e-01
1.036897802229466370e+00
1.094665561006566534e+00
1.064637521237968842e+00
1.029359884937086633e+00
1.117830860310421004e+00
1.273608142065890680e+00
1.320924779575086250e+00
8.560924248815310333e-01
9.094662047808377281e-02
-4.891459390800664830e-01
-8.617420488058665784e-01
-1.083340318876365727e+00
-1.194426820054403038e+00
-1.231915673914398601e+00
-1.212652248472738226e+00
-1.151564785829758408e+00
-1.061125149314324778e+00
-9.526792964937272901e-01
-8.339468668893129655e-01
-7.100521928128549209e-01
-5.852176882099836552e-01
-4.654752736721330386e-01
-3.494482270854921691e-01
-2.436820718885112091e-01
-1.450579527798225854e-01
-5.331876593164575073e-02
2.714630478159596461e-02
9.939040342486343826e-02
1.625296361901876208e-01
2.187493210284846834e-01
2.658567451439539653e-01
3.025139325640279209e-01
3.296925271217797659e-01
3.476239241221306675e-01
3.575015995102504562e-01
3.597819501085935956e-01
3.561655785986166944e-01
3.456623371453886873e-01
3.320625934513627420e-01
3.173798272645306229e-01
2.974899798880847879e-01
2.741544995961429088e-01
2.491443552056518129e-01
2.220166712076428461e-01
1.943010232195692688e-01
1.671907801891905354e-01
1.397279723945877294e-01
1.121265938143545804e-01
8.517482871214776541e-02
5.868023619874002117e-02
3.430684833949518286e-02
1.135720716620552961e-02
-1.103927568825313621e-02
-3.033533174784762421e-02
-4.721820877683224893e-02
-6.211542298857246347e-02
-7.508079131073795709e-02
-8.733179009747449317e-02
-9.756639316022093500e-02
-1.065026322092661876e-01
-1.140657830534881900e-01
-1.200488212809431299e-01
-1.257269433253253577e-01
-1.313596679633145248e-01
-1.356228802222591845e-01
-1.386139352266792801e-01
-1.418614557380861729e-01
-1.443294086895626771e-01
-1.461761208835079817e-01
-1.498174446711532659e-01
-1.512912087052517562e-01
-1.477414393280991334e-01
-1.425605046000379128e-01
-1.359530619144157515e-01
-1.295163273313108265e-01
-1.204188982825376009e-01
-1.102221800618763542e-01
-9.596861540850883110e-02
-8.362413440817018095e-02
-7.084120655894890484e-02
-5.614017718407000174e-02
-4.459208336670603817e-02
-2.669501655911196356e-02
-1.339442729239483446e-02
7.023510401579498123e-03
2.429176585679654332e-02
4.557398728006953337e-02
6.876780392424114430e-02
9.673532258255194971e-02
1.275355070414365133e-01
1.532976854045005610e-01
1.848393378399510179e-01
2.062495034698902940e-01
2.402052253251098224e-01
2.579047606254258884e-01
2.902022959398295465e-01
3.046800534127221960e-01
3.278086070733114976e-01
3.400614294122754622e-01
3.484041013678577103e-01
3.614304632349779611e-01
3.500377705009568019e-01
3.596712012654573187e-01
3.274461878821212646e-01
3.348960335802808608e-01
2.824499928199439847e-01
2.744227369241077352e-01
2.096987949986838240e-01
1.699686793305058008e-01
1.002735800470213878e-01
1.625590407584373218e-02
-3.945986688657478897e-02
-1.814580646059307800e-01
-2.259242216570704620e-01
-4.273666797857240129e-01
-4.664638625612698153e-01
-7.028968177945956741e-01
-7.692990607799512492e-01
-9.918107243724350042e-01
-1.135715225659326810e+00
-1.286046917202109618e+00
-1.553656837038652538e+00
-1.562330072996916286e+00
-2.004166285393249147e+00
-1.823321157447256979e+00
-2.435699408210609818e+00
-2.005333079691625553e+00
-2.803424262026255942e+00
-1.602240236792340511e+00
4.493656768006434099e+00
5.047621803895810721e+00
4.147948935526297731e+00
4.677393912248598795e+00
3.875733194103605950e+00
2.286366104152556478e+00
1.196848962170717012e+00
1.096621303147415016e+00
3.639741224820300936e-01
3.262305755476024860e-01
-1.709444396826058643e-01
-2.251862054938644775e-01
-5.139159088566223055e-01
-7.235134584370597199e-01
-9.131732226696063215e-01
-1.204894930134701170e+00
-1.288280357981389068e+00
-1.829865854472674913e+00
-1.743935316711939798e+00
-2.460936464937327983e+00
-2.294248482158355529e+00
-3.246588842819755794e+00
-2.984051231126324755e+00
-4.130125820597689845e+00
-3.883075771712646063e+00
3.112951605104949060e+00
3.782286924018396945e+00
3.281169337038647882e+00
3.850239508339428074e+00
3.540838121993298948e+00
3.915651022869711895e+00
1.785186082584459433e+00
1.657119878233619614e+00
1.279068575784421125e+00
8.881250129251045955e-01
7.188665150331152720e-01
2.434101268444772703e-01
9.870163326626824052e-02
-4.125892822054854081e-01
-5.416614714318183088e-01
-1.031675597320527604e+00
-1.140189441384794389e+00
-1.429107883572230397e+00
-1.348149089526512912e+00
-1.430226915800222542e+00
-1.308090417317552268e+00
-1.348458676187809901e+00
-1.395799856594585497e+00
-1.274580430127287167e+00
-1.540091479855577816e+00
-1.412332964557504678e+00
-1.849898466194029645e+00
-1.689123479854405918e+00
-2.584233220250658825e+00
-2.273544732989901007e+00
-3.405929739662714173e+00
-3.069128436716296093e+00
3.706596461062538150e+00
4.527492132688903048e+00
3.549830433044458111e+00
4.339054680450115775e+00
3.460505532222003744e+00
4.102841180174159774e+00
3.422789532694264114e+00
2.024213430068769082e+00
9.508854458484115035e-01
6.436407766107570261e-01
1.791057330615202225e-01
-3.913263561262527723e-01
-7.283040704917480568e-01
-1.799657561876635059e+00
-1.898956176824786679e+00
-3.150574738177726708e+00
-3.161152948121698003e+00
-4.665226971577345338e+00
-4.261528680036463790e+00
2.647716472470443616e+00
3.411026744794694920e+00
2.648712508213028727e+00
3.239170852260640387e+00
2.701488725493118359e+00
3.019149068585793128e+00
7.146600487049271644e-01
2.981139394651035612e-01
-1.018347959445644046e-01
-9.733538621606405705e-01
-1.142937407367523139e+00
-2.271480447695314986e+00
-2.272494691925562194e+00
-3.661210935754366513e+00
-3.585788357116800551e+00
-5.263273239715252849e+00
-5.081913782161195492e+00
1.622217024787119266e+00
2.322373365267654144e+00
1.475972482883401327e+00
2.016562427931865464e+00
1.364180864643313118e+00
1.679004175132207788e+00
1.250683331051362313e+00
1.344300280900500466e+00
1.113472275094880448e+00
1.033619548129183885e+00
9.444758529078910447e-01
7.634015435554178941e-01
7.466508597859300433e-01
5.326654254651347342e-01
5.293382359832782269e-01
3.326673552509933351e-01
3.076249485963229446e-01
1.559956376961180169e-01
9.752572633639700062e-02
-4.347456194138010765e-03
-9.087952003937138645e-02
-1.559071184768565099e-01
-2.561746615884017420e-01
-2.974594570472027799e-01
-3.924234646790839554e-01
-4.242065788962720574e-01
-5.037253341390509620e-01
-5.312178551496636869e-01
-5.874889376642732364e-01
-6.131594428238470451e-01
-6.452669417493168691e-01
-6.647729397108406157e-01
-6.728068084585123732e-01
-6.801152981760119065e-01
-6.659728844973669126e-01
-6.555536536791468638e-01
-6.191488651214192007e-01
-5.874509543396200240e-01
-5.267776849500789282e-01
-4.706041152174367248e-01
-3.842318241200141649e-01
-3.011730548439924826e-01
-1.871747742520600277e-01
-7.485850767969548514e-02
6.585737052028022009e-02
2.122982357160342892e-01
3.776229045573260557e-01
5.632195149469467754e-01
7.478478607656990906e-01
9.778485549108851815e-01
1.173720318221476155e+00
1.447386886621979896e+00
1.651428214654689253e+00
1.965933266543178570e+00
2.171494494813894338e+00
2.515240616640344484e+00
2.736301411282544560e+00
1.607835938976937662e+00
3.787473669362944051e-01
-3.795497520363133592e-01
-9.819737235114813778e-01
-1.293589217647332479e+00
-1.529310296023593807e+00
-1.595831827008862280e+00
-1.616764497098924114e+00
-1.557460326385652793e+00
-1.466567909546838244e+00
-1.345180748574598573e+00
-1.193063511283535938e+00
-1.048728106563536544e+00
-8.804801764848046997e-01
-7.319227802987207099e-01
-5.691262177920815013e-01
-4.277296339842953099e-01
-2.865601448773754667e-01
-1.618670954872882817e-01
-4.599617620298090959e-02
5.671742921139122373e-02
1.430848604578476846e-01
2.218617606489760863e-01
2.836724764278000244e-01
3.371854904952421572e-01
3.748675055287750135e-01
4.045894353412271549e-01
4.215665082263118091e-01
4.307290730120973965e-01
4.299393426616968661e-01
4.254696894851013322e-01
4.092999756949419199e-01
3.885101240798467526e-01
3.665497932427046468e-01
3.373031130016643786e-01
3.077077722046581698e-01
2.732803303540051187e-01
2.394851052577108286e-01
2.035193983347082236e-01
1.677201253835721717e-01
1.322234140842568073e-01
9.816349765469734034e-02
6.513073044748812768e-02
3.349830974194412114e-02
6.898000048014274466e-03
-2.022300742648200367e-02
-4.435880035464770388e-02
-6.510237974143559536e-02
-8.283725386971788063e-02
-9.873784208776495430e-02
-1.132824840145945922e-01
-1.205250411716726200e-01
-1.254187341538439138e-01
-1.279607073128667949e-01
-1.279090028244265487e-01
-1.287042013807667973e-01
-1.263115877397590625e-01
-1.233501918802905883e-01
-1.187427065213708388e-01
-1.120312961398294282e-01
-1.031332522774875415e-01
-9.106588706769125352e-02
-8.063684875837723309e-02
-7.022858102755533127e-02
-6.034718454229565099e-02
-4.981152244037465038e-02
-3.958297706902899615e-02
-3.150014675961776422e-02
-2.282326255073716115e-02
-1.768448503125150117e-02
-1.041206148153674127e-02
-2.105681441328000059e-03
2.420951931502338117e-03
9.219286118353146875e-03
1.365092036390548602e-02
1.760886301518412023e-02
2.345102374841282616e-02
2.750402642904872796e-02
3.222512579657274556e-02
3.613754947538101725e-02
3.766306663761007784e-02
3.961450807106774163e-02
4.080365533982410753e-02
4.092098959982760908e-02
4.083396466352708087e-02
3.862088005735915541e-02
3.568657603912942650e-02
3.132326569941273897e-02
2.747321868895047370e-02
2.536832922359852360e-02
2.245826416689552379e-02
1.773223031569780977e-02
1.398486198392052959e-02
1.305270580246887385e-02
1.078922132812985130e-02
8.156576572369206302e-03
5.454652088057905523e-03
3.312166704866018052e-03
3.052269526876000977e-03
9.413483630263050350e-04
-2.357241782306035427e-03
-4.349149295429849058e-03
-7.126781645244751294e-03
-9.660596928864638444e-03
-1.186174586024084029e-02
-1.343887714201518445e-02
-1.465906857490416153e-02
-1.641926733632090990e-02
-1.528661237234104318e-02
-1.549282950396028286e-02
-1.549510426152716711e-02
-1.302834688895195339e-02
-1.159878645470771227e-02
-1.043176996498566822e-02
-8.293494198954459024e-03
-5.251002172450395383e-03
-2.865170959801984635e-03
-1.155136433395247825e-03
2.111942023245994005e-05
1.077873386356873603e-03
1.526066533641182860e-03
1.956350667284485409e-03
1.235130214083623307e-03
1.030390683685679203e-03
1.659182895963081002e-03
1.730967499288135932e-03
2.109805496828852118e-03
2.047657270981091768e-03
3.195522452618183504e-03
2.581887807087712358e-03
1.988935380740800268e-03
1.396706628981647311e-03
-2.472750038721911216e-04
1.236924911944391886e-04
-3.068628523045296638e-04
-8.764099186996301277e-04
-1.723744369503653730e-03
-2.201540566529266302e-03
-1.252485703541216834e-03
-1.551387102692520711e-03
-2.066913472108918015e-03
-1.131809149964209133e-03
-8.914444777554284514e-04
-1.218488194061943591e-03
-5.590959201336831268e-04
-1.573417497586298251e-04
9.257965007483815595e-04
2.416207606155919806e-03
4.268076436229047664e-03
6.863048411004649650e-03
7.269623068294587230e-03
7.101758045904033728e-03
5.792420168235449390e-03
3.160501878851191930e-03
2.767457392748439750e-03
1.500112223928123066e-03
-1.752681078318720290e-04
-1.077804195653072651e-03
-1.739965617787277933e-03
-1.018163039075914260e-03
-3.170256377886649475e-04
7.205893066175273701e-04
1.193975156297871244e-03
1.240968457929933835e-03
2.145771554148358587e-03
3.433682893159564938e-03
2.856331857316590696e-03
2.120171382980969596e-04
1.023534873380104148e-04
1.230287385208504681e-03
-6.569916243822238738e-06
-1.228963025495529316e-03
-1.980640986722627742e-03
-4.575227848147365994e-03
-6.141472046079469484e-03
-6.854448564351784887e-03
-7.330560035585268093e-03
-6.752598701542906513e-03
-7.135622319146663409e-03
-6.818399484435536118e-03
-6.808740950304991574e-03
-5.741044569825555499e-03
-5.017667548998951295e-03
-5.107456906377425172e-03
-3.970462421976493801e-03
-5.215013792716432540e-03
-4.598556850875344312e-03
-3.784018760680967104e-03
-3.345070871954493319e-03
-1.757548236309629036e-03
-2.143015898742362500e-03
-7.383028546138735177e-04
9.198797157593794661e-04
2.793898232458799126e-03
5.163047300813125746e-03
6.534098566152065669e-03
8.273365928945081854e-03
9.111385453013109287e-03
1.080484423817739716e-02
1.266635318540745847e-02
1.263525893833710757e-02
1.287651447636720993e-02
1.264618141744394166e-02
1.183339970627318716e-02
1.259133612050992133e-02
1.193224830286029707e-02
1.034765536206383452e-02
1.008543317688356117e-02
9.906140939165138798e-03
1.060513797166432251e-02
1.108858967024329081e-02
1.137601202653649134e-02
1.181620015787087502e-02
1.063079631753663032e-02
8.767083450366128239e-03
9.223945095197654334e-03
8.652825192658017417e-03
5.826345221338822405e-03
3.124475113797897576e-03
-8.002332325563988550e-04
-3.860904132741597300e-03
-7.602382905245832698e-03
-1.147889611373514168e-02
-1.495135828645687351e-02
-2.009593838077447861e-02
-2.342621899363957552e-02
-2.643379089734426354e-02
-2.931736828247779453e-02
-3.129388963739036800e-02
-3.558506844028264116e-02
-3.828013128803971904e-02
-4.029601528039247066e-02
-4.319772595558895451e-02
-4.438018057713858516e-02
-4.695690130555298103e-02
-4.780896967060589697e-02
-4.853471852784169149e-02
-4.931750845483156426e-02
-4.760702463167960224e-02
-4.612884346194248003e-02
-4.236388957898503532e-02
-3.722275596878446557e-02
-3.054686362069621713e-02
-2.274956275977271097e-02
-1.337892912466181507e-02
-2.806102430297850725e-03
6.628125435606715098e-03
1.863913010158985833e-02
3.205847144155615780e-02
4.592250803262139941e-02
5.799678591068285760e-02
7.040632303582679274e-02
8.358415930198270782e-02
9.460087551709966958e-02
1.081459785856160177e-01
1.189715151974872903e-01
1.292819052839169203e-01
1.380961773505202383e-01
1.461438128360857958e-01
1.535770390062000945e-01
1.576011708724867344e-01
1.602647248595079899e-01
1.568918678521814825e-01
1.502224607458967909e-01
1.372251389681959366e-01
1.273592286039727517e-01
1.125055618110851058e-01
9.089182797508306433e-02
6.112192876141332026e-02
2.173709621356231456e-02
-2.567158655313763957e-02
-7.831075670575861347e-02
-1.265860834403594315e-01
-2.040898857166262848e-01
-2.892881517845103945e-01
-3.794705977213134740e-01
-4.544925438035539167e-01
-5.514680022866258469e-01
-6.530586659316119924e-01
-6.057784980595958269e-01
-4.770406396634302437e-01
-2.815964595795943382e-01
-1.914039113386228896e-02
1.826972400106620653e-01
2.890449638694039258e-01
3.452998059981505774e-01
3.594184289609651528e-01
2.976721495558685704e-01
2.185972455815234639e-01
1.221383610224323346e-01
-2.226292338852112196e-02
-1.436729914199623703e-01
-1.773178157611267070e-01
-1.269294784363753925e-01
-5.152551501888497087e-02
-1.261861875015451995e-02
1.465147438107891609e-02
1.298850554561737369e-01
2.979916121235212656e-01
4.148900425282345261e-01
4.703560077725407185e-01
4.505444817053760320e-01
4.106492978045230835e-01
3.541816279767080466e-01
2.241153036192572723e-01
1.201594236390939874e-01
-5.794820572068870579e-03
-1.693048791787941376e-01
-2.682708507260875841e-01
-3.231070478035396598e-01
-3.052208695216289125e-01
-2.419601021577959532e-01
-1.638144327242332665e-01
-1.439417600354567228e-01
-9.267223257056692032e-02
7.179377350325280571e-02
1.397162038904725678e-01
1.806678979201250534e-01
1.991453389042650568e-01
1.609373755018680685e-01
1.013538833465919969e-01
8.308005477416016693e-04
-7.003910924201428578e-02
-2.316594130442378718e-01
-4.063120838479842289e-01
-4.678066588447197249e-01
-4.517086167897778060e-01
-3.549596916182334860e-01
-2.554306299540441971e-01
-1.681623475712306082e-01
-7.895181696003192306e-02
5.193703713272740385e-02
2.045924745313823789e-01
3.016971722063966355e-01
3.604519779394639301e-01
3.488914426766336341e-01
2.871840691722045702e-01
2.298893451211176664e-01
1.482131445565341710e-01
3.586317943641531558e-02
-1.332295109737376138e-01
-2.652543478704477153e-01
-2.977843878261181576e-01
-2.954765883453683850e-01
-2.222506817264783274e-01
-1.164332808662928570e-01
-4.650127831553655527e-02
7.165480230435637699e-03
1.254821376622619611e-01
2.814075619110577575e-01
3.495557519495702259e-01
3.650834916074999770e-01
3.747922568032538981e-01
3.316465457893242874e-01
2.421629471474930351e-01
1.565380147406415512e-01
1.355275996330032595e-02
-1.494551669569242902e-01
-2.353339358915590152e-01
-2.609811213984539746e-01
-2.357184813078595231e-01
-1.739026730567428680e-01
-9.828424009898317770e-02
-6.740030792409831828e-02
4.937015321619747654e-03
1.502130700664738028e-01
2.472865598903539741e-01
2.698663654215289753e-01
2.304880841582004902e-01
1.556769076191988344e-01
6.953243747214679638e-02
-2.942924143008203430e-02
-1.588020025388707790e-01
-2.954648821197568553e-01
-4.191094902785413856e-01
-4.538016274031945185e-01
-4.251784331089271673e-01
-3.483434142012957757e-01
-2.378243802061510148e-01
-1.726161325746757291e-01
-7.228995926025194585e-02
4.986704982931944308e-02
2.182190107207552243e-01
3.532655296098854980e-01
3.987995282186005408e-01
4.049932028395296646e-01
3.480497241014937071e-01
2.720295710490384655e-01
1.615914414528443754e-01
3.183259333962853987e-02
-1.413643764189127794e-01
-2.834837106578687038e-01
-3.297303419556478765e-01
-3.108795356557990663e-01
-2.221275495216014639e-01
-1.264398267814401955e-01
-7.952834434967609445e-02
-3.088631432692170997e-02
8.676277482432541432e-02
1.904085163062800845e-01
2.477932667706100878e-01
2.338921411144263551e-01
1.901923804731621148e-01
1.302015139986971715e-01
2.572050618676977041e-02
-6.156518816112779846e-02
-1.861581444535848617e-01
-3.213924127814443699e-01
-4.063759408797470996e-01
-3.798176921213823887e-01
-2.825920828050089151e-01
-2.068610824114054947e-01
-1.014078360594461992e-01
4.419278275774388143e-03
1.402870742277053384e-01
3.335984469449894130e-01
4.554803092098014816e-01
5.039802547049913040e-01
5.348070908912279098e-01
5.034240481902964026e-01
4.056619797665040328e-01
2.830893975874562152e-01
1.454489265693303390e-01
-4.140658150331649745e-02
-2.100604878204226644e-01
-2.855780056592200911e-01
-2.942035404810515731e-01
-2.356453899637222238e-01
-1.807318229808876908e-01
-1.856487741395771440e-01
-1.590170598326635099e-01
-4.613825225017725851e-02
7.807491813710598638e-02
1.648399977564740659e-01
1.809672290832962105e-01
1.371834872536148719e-01
7.515673632301690665e-02
-1.464731743911834583e-02
-8.768308270657179659e-02
-1.821161573502689812e-01
-3.384004888194123151e-01
-4.595071771023755969e-01
-4.937619025723767874e-01
-4.474363745925669655e-01
-3.298321069929573968e-01
-2.155348482239229646e-01
-1.354725094336200197e-01
-1.284111482545957639e-02
1.612169557166737710e-01
3.108182391671999167e-01
3.946138587465563008e-01
4.309577530123367972e-01
4.335393022780671402e-01
3.713818628162637303e-01
2.710355545486197171e-01
2.190524077363789623e-01
9.932330452331739057e-02
-8.631822525940829882e-02
-1.360013186111374006e-01
-1.283927003752929619e-01
-1.000097977209931654e-01
-1.566957779140282225e-02
5.618904718441151969e-02
1.194158052428119371e-01
1.809250103168502655e-01
2.998697416527426052e-01
3.889128234301133524e-01
3.740863947689260782e-01
3.552257210230165274e-01
2.970193393391788450e-01
2.198223223140599036e-01
1.132732075545670458e-01
-3.340393355162155076e-02
-2.182634502796917675e-01
-4.031699639152235282e-01
-4.852330119032475797e-01
-5.071491456947694321e-01
-4.603361553015911101e-01
-4.263601132385810288e-01
-3.859834871135135459e-01
-3.232168448790861959e-01
-2.515953054482287232e-01
-1.231866874516782395e-01
-6.734995988796671496e-02
-4.684985282186476807e-02
-7.726576471673864133e-02
-1.242071474825320043e-01
-1.573059492398449499e-01
-2.331700287215431877e-01
-3.083220813004248217e-01
-4.370270050946147844e-01
-4.786704066783891709e-01
-4.054006719663019176e-01
-2.660815860402928057e-01
-2.525625038623711613e-02
7.190825341681322813e-02
3.759186628546642983e-03
-5.197433181345442743e-02
-7.972093148923288519e-02
-8.794979969712987677e-02
-7.252599108148549689e-02
-3.038848558451065496e-02
3.040215736897969312e-02
1.231371823928773673e-01
2.306249808441851457e-01
3.716194541789178962e-01
5.270996093120433601e-01
7.112245480560658306e-01
9.139287873792261152e-01
1.133197083017483120e+00
1.381490561488266655e+00
1.630909253389031699e+00
1.919784430781429130e+00
2.190523711040994304e+00
2.513504707409018657e+00
2.041323228689243319e+00
6.490516083628952160e-01
-3.434868554887566816e-01
-9.678272094630302469e-01
-1.403604774617983608e+00
-1.621890706608152488e+00
-1.744607321962975854e+00
-1.726434270114265201e+00
-1.693858670848578329e+00
-1.586728246724542934e+00
-1.450105985931634756e+00
-1.291279749526451193e+00
-1.117526971906711575e+00
-9.451271657424420436e-01
-7.656672730377682701e-01
-6.002139924790343972e-01
-4.337972650323282942e-01
-2.872052875900379387e-01
-1.461890265976381054e-01
-2.205302174832912687e-02
9.045347589944963129e-02
1.862366429363307430e-01
2.688777424566289320e-01
3.382204840632386800e-01
3.911285824509831421e-01
4.342156501081164133e-01
4.642154183252905075e-01
4.836909619606693522e-01
4.899762569665556122e-01
4.920883098057411420e-01
4.826159493115568244e-01
4.663363090991577975e-01
4.444102457682865825e-01
4.152851256780250022e-01
3.835977039097613339e-01
3.463725651556219809e-01
3.068978522996429481e-01
2.659276758431683430e-01
2.246595989720324704e-01
1.824631629780947284e-01
1.419421505391115224e-01
1.023296556275234970e-01
6.417587713157579810e-02
2.995666891581433289e-02
-2.237195045971640539e-03
-3.022204329872921202e-02
-5.568526081401092842e-02
-7.853390029890376656e-02
-9.829252681801306513e-02
-1.141546063082184703e-01
-1.261333661529651928e-01
-1.365560972366615111e-01
-1.425898652984248227e-01
-1.466093588930504621e-01
-1.491600134613216555e-01
-1.486468880782665647e-01
-1.455896950923421529e-01
-1.406236840051087456e-01
-1.345125552279555214e-01
-1.265002772165629841e-01
-1.170920447978282541e-01
-1.057931792872173205e-01
-9.544572758598846018e-02
-8.406714297399864311e-02
-6.994899099729587344e-02
-5.834764508037584840e-02
-4.590229118779165507e-02
-3.313668239288081185e-02
-2.252388208573768980e-02
-1.231929913200413562e-02
-3.209121364517703023e-03
5.363121215428909294e-03
1.220927601235435866e-02
1.858976471087556148e-02
2.423348930516998345e-02
2.988572145654102077e-02
3.431312706886114478e-02
3.980792402389391610e-02
4.801686650836083786e-02
4.884689738541422854e-02
4.601247469818647851e-02
4.354762697359063767e-02
4.033919313054667305e-02
3.765582072968720606e-02
3.413248557870318667e-02
3.086444879604779978e-02
2.705709956368845814e-02
2.291911261081179541e-02
1.913379423194834505e-02
1.388990894853031621e-02
9.418607836539513722e-03
5.094748998957399078e-03
-4.873741705982148620e-04
-1.900069619340534477e-03
-3.247739658442196087e-03
-5.303915908356826581e-03
-5.129172375884873125e-03
-6.977476478127457582e-03
-1.025718252928911611e-02
-1.082929742204753742e-02
-9.050849098788929861e-03
-1.058871057351239500e-02
-1.202921116384364844e-02
-1.169561734192271427e-02
-1.086917465031343906e-02
-9.098308955340661877e-03
-7.042454716623266012e-03
-3.027898969416223732e-03
-2.163673103270022380e-04
2.613691271963104398e-03
6.931631464587504482e-03
1.314090492322928481e-02
1.902533363765470872e-02
2.379742138138259827e-02
2.869264270747538814e-02
3.105176502970382127e-02
3.557536105509701008e-02
3.971066385308735791e-02
4.185631984264831518e-02
4.106375298207103758e-02
3.911060033498506977e-02
4.059135416779002109e-02
3.958135935167377689e-02
3.868618023767675385e-02
3.890244893344773497e-02
3.616733928413583266e-02
2.998794090811782165e-02
2.371307158259844047e-02
1.658982478131725349e-02
8.312699250733834519e-03
1.327031120053036523e-04
-9.203522029599030263e-03
-1.801096847160044839e-02
-2.832195149057425976e-02
-3.940196319883437770e-02
-5.106856500122711889e-02
-6.369776929265524856e-02
-7.492427038261620376e-02
-8.640083532913889197e-02
-9.799968058372954260e-02
-1.078866669456203797e-01
-1.184475011925736621e-01
-1.266805470955763291e-01
-1.348732946188732629e-01
-1.404798606164779640e-01
-1.442046623974942154e-01
-1.468785784006841622e-01
-1.466688235748147828e-01
-1.447660824034333604e-01
-1.382324283985406910e-01
-1.309385313454810296e-01
-1.178421401284689279e-01
-1.067356344138346846e-01
-8.884939839093952685e-02
-6.992008107022651409e-02
-4.495273650215873135e-02
-1.753207325051031606e-02
1.299314860016701108e-02
4.771970939000092643e-02
8.045445480778104508e-02
1.240015972250803761e-01
1.594280811852794855e-01
2.070491919881616294e-01
2.412307371631254027e-01
2.873707592912830844e-01
3.204267497263930675e-01
3.663283948579635352e-01
4.038775485358641060e-01
4.347329214338085390e-01
4.705958029890719430e-01
4.807772766617517401e-01
5.138862419998884157e-01
4.978325423092704316e-01
5.217884988236076715e-01
4.835364996044109187e-01
4.828828477180920342e-01
4.284439873063127791e-01
3.907558846495662319e-01
3.306770823038373552e-01
2.369077556252449923e-01
1.796201981765659095e-01
1.828781933460485107e-02
-3.829937183816550100e-02
-2.602549228599223552e-01
-3.287814286406986475e-01
-5.902594827740005323e-01
-7.077574125401135952e-01
-9.648599482240048930e-01
-1.181935913333445942e+00
-1.378017478067862234e+00
-1.744934981336548674e+00
-1.822169944890768001e+00
-2.380272816120672541e+00
-2.313701469020384760e+00
-3.064172812284609915e+00
-2.833743399406665642e+00
-3.593698822474054033e+00
-2.451793406003998754e+00
3.526207922893210167e+00
3.839022805923140602e+00
2.938635867832605442e+00
3.168894246404306170e+00
2.405985364496741052e+00
2.493570790620269761e+00
1.915963859671341751e+00
1.848168366708669019e+00
1.458472895449387741e+00
1.264039418897610734e+00
1.024877984067532610e+00
7.581539960659731126e-01
6.180240625605206706e-01
3.361739479575343026e-01
2.440797858214216465e-01
-5.406135181346138907e-03
-8.636117330866233122e-02
-2.780931352413689162e-01
-3.644339020423204012e-01
-4.935253211603539136e-01
-5.846471310694283385e-01
-6.599878005393725600e-01
-7.469655140192045240e-01
-7.822487777490584326e-01
-8.531411028731284985e-01
-8.630398068118667609e-01
-9.082607898179634320e-01
-9.026478541262740185e-01
-9.176202692863959509e-01
-9.005446499639203628e-01
-8.843047594456796556e-01
-8.538660753313573881e-01
-8.103268760787998293e-01
-7.635747312808245368e-01
-6.949062395017557847e-01
-6.264951286102791173e-01
-5.358628361849913091e-01
-4.426690299770661419e-01
-3.313419718301276462e-01
-2.114721978865313767e-01
-7.748930274722104494e-02
6.956898964424190757e-02
2.297095364912623006e-01
4.019406902067486076e-01
5.898221299501684722e-01
7.844496018714679497e-01
1.001942548793355758e+00
1.217222192327177543e+00
1.462504289331479690e+00
1.694070969261807669e+00
1.961473413478439953e+00
2.212922157401720824e+00
2.501349893786333212e+00
2.768404359396625658e+00
2.063855026727400510e+00
7.690873377156848267e-01
-1.331993203711345775e-01
-7.621330097645793167e-01
-1.170366265331604705e+00
-1.420204287898820361e+00
-1.551420503124168793e+00
-1.582960281933304181e+00
-1.555995124650354056e+00
-1.477575402104970514e+00
-1.372102714704217741e+00
-1.235668467779035051e+00
-1.092458365841539658e+00
-9.373319193737503774e-01
-7.852571621481965192e-01
-6.343794972261913578e-01
-4.921027629861389752e-01
-3.537492840611820011e-01
-2.242563259073031556e-01
-1.129172933355048203e-01
-7.080210664265340625e-03
8.517969954261706000e-02
1.644783907310238269e-01
2.320027795178440377e-01
2.872347878362320195e-01
3.301732129064399723e-01
3.634974846438548957e-01
3.853658567163562032e-01
3.986711541961691641e-01
4.036195236742444181e-01
4.004682745369688712e-01
3.912017336107008747e-01
3.765380066455806807e-01
3.586706344320844675e-01
3.337490999376563350e-01
3.063134331878150096e-01
2.788163263868922437e-01
2.485957732216976801e-01
2.170600644976682370e-01
1.862300085489904111e-01
1.557428629671546161e-01
1.253169557220192298e-01
9.653820878270752415e-02
6.888946846263804824e-02
4.255660688744428155e-02
2.043915092349218865e-02
1.578005638668639188e-03
-1.506561257821978361e-02
-2.867965213475485997e-02
-4.169288691383971068e-02
-5.432244320211970096e-02
-6.499444829864577111e-02
-7.385452287336553845e-02
-7.991829911568140710e-02
-8.378355335352719035e-02
-8.799325907049834750e-02
-8.968309711395675010e-02
-8.940510646551960705e-02
-8.957287156613630286e-02
-8.956259428530169431e-02
-8.723886077438658404e-02
-8.121779824770267164e-02
-7.853768728367260810e-02
-7.810238203241257060e-02
-7.635320789029237387e-02
-7.649449462444526948e-02
-7.765767947353663381e-02
-7.893375017465056875e-02
-8.178660313160818207e-02
-8.578979864253158394e-02
-9.040815634943949464e-02
-9.556428889660270598e-02
-1.004522362396250840e-01
-1.062041771453364480e-01
-1.109187170827636432e-01
-1.151741976179678495e-01
-1.184587820633632993e-01
-1.205398493821863148e-01
-1.216820277168061543e-01
-1.204805239689305946e-01
-1.184176542750890182e-01
-1.118667788909335908e-01
-1.049400070214309699e-01
-9.625815667359208239e-02
-8.198114106431356185e-02
-6.563236067038002997e-02
-4.756395827529261849e-02
-2.705931708328476390e-02
-1.741832840078214040e-03
2.509046366253904481e-02
5.544276382063938885e-02
8.835135263667731609e-02
1.234648578963012944e-01
1.616488873211868738e-01
2.005550607723218248e-01
2.400271776610512497e-01
2.797810644888948928e-01
3.187777898391987441e-01
3.558176384465527309e-01
3.928287567125818280e-01
4.237421893587591248e-01
4.504434378169434594e-01
4.705026204901666120e-01
4.856977573155367156e-01
4.931761405651321484e-01
4.914324348279973109e-01
4.806190722772111790e-01
4.580882696681655708e-01
4.273887495393008384e-01
3.822549455734489121e-01
3.268346630150457677e-01
2.523862305019558550e-01
1.668459625394201340e-01
6.023952271211891613e-02
-5.921833284163145750e-02
-1.957872656026478364e-01
-3.506056614179316466e-01
-5.215525415122427288e-01
-7.130898238510807730e-01
-9.078817555834395314e-01
-1.139268653694030409e+00
-1.364432550935366528e+00
-1.619063232240121941e+00
-1.842561265213899624e+00
-2.097115679719456782e+00
-2.262223274867555922e+00
-1.852751691901134867e+00
-1.196320164000741038e+00
-6.363962849682410772e-01
-9.893260981016060995e-02
3.997065240558138055e-01
9.165334102434705699e-01
1.349763396180704067e+00
1.632538018495357734e+00
1.824196222345924268e+00
1.943035937115454415e+00
1.921885064576866364e+00
1.717756178139210999e+00
1.470868752293366999e+00
1.187035434320056204e+00
8.336595285386316778e-01
4.941622251795727561e-01
1.913261369442760262e-01
-3.920671024320965259e-02
-2.614779632071723148e-01
-4.590972936157838857e-01
-6.315617965616246998e-01
-7.511132622967962025e-01
-7.374729601166891690e-01
-7.633185087691705117e-01
-7.841893758264347758e-01
-7.586547611166638561e-01
-6.954887373974613096e-01
-5.651574060169514135e-01
-4.277585504531666860e-01
-2.298985724784919915e-01
-7.356747961116216761e-02
9.958873808502743952e-02
3.649249819042831855e-01
5.399409686253658913e-01
6.698347385847583935e-01
8.219269980623931104e-01
9.652972586809862587e-01
1.126101940186096773e+00
1.274379658198970589e+00
1.290563533636619242e+00
1.153994912919392490e+00
9.321620830859019824e-01
6.192156862074295054e-01
2.755252377868945834e-01
-7.559206090698059044e-02
-4.401021632021532293e-01
-7.473764302023864214e-01
-1.060926288433008402e+00
-1.356225510559249781e+00
-1.504158733820768035e+00
-1.558098053610761369e+00
-1.525484314325469937e+00
-1.409233403949069707e+00
-1.302562747206979399e+00
-1.141545374906919541e+00
-8.764638993078323059e-01
-5.780336576360930456e-01
-3.280987342720140809e-01
-1.199348206731700728e-01
7.958021401999426647e-02
2.594988854805485579e-01
4.248179963882209309e-01
5.672506758131508064e-01
6.962789500296875378e-01
7.835376205236761482e-01
9.770236905974780672e-01
1.126284903984211994e+00
9.694023215397018500e-01
7.854504295846631567e-01
6.293712886474550627e-01
4.555730967330448022e-01
3.057008468736295281e-01
1.505653869405958467e-01
1.262069008094468536e-02
-1.174636052333816183e-01
-2.348446503970775812e-01
-3.351590616020513336e-01
-4.247191707559300200e-01
-4.919316257468578368e-01
-5.453855073585689439e-01
-5.775517720050618031e-01
-5.889029914805801180e-01
-5.842963848134280491e-01
-5.477654986476249155e-01
-5.046706589342904170e-01
-4.217986227336836813e-01
-3.356867438177767449e-01
-2.084411121282542245e-01
-7.490456042618542920e-02
8.980235796098026690e-02
2.757347238739334405e-01
4.696331499834445755e-01
7.113215905262351146e-01
9.241234135653964010e-01
1.221237563437533868e+00
1.446068475249807417e+00
1.792505066439147532e+00
2.027376410088152614e+00
2.408405591038892180e+00
2.654551457649604984e+00
1.486631838678920792e+00
2.386665236318736838e-01
-5.093415924200901390e-01
-1.103545698618104476e+00
-1.390814929587539162e+00
-1.607498395310843708e+00
-1.651457859957433216e+00
-1.649945746116646461e+00
-1.573310590068490722e+00
-1.467541828397646242e+00
-1.324657323070601578e+00
-1.150624519575186522e+00
-9.898465180084772275e-01
-8.070068225859989841e-01
-6.490441330924281438e-01
-4.797460295212137016e-01
-3.356901054388760075e-01
-1.923015956239640945e-01
-6.918514119498686554e-02
4.454976849907010816e-02
1.429636147408059332e-01
2.248797694832772309e-01
2.987820334016985102e-01
3.520677731577560032e-01
3.990653936163287563e-01
4.288070962809623077e-01
4.528402051307939824e-01
4.635121435785061195e-01
4.670278513283445121e-01
4.615598638065102621e-01
4.487144484430223290e-01
4.296918997326929501e-01
4.046212746909157998e-01
3.752586319223437661e-01
3.410075226211356503e-01
3.061345820146135210e-01
2.675415217071518414e-01
2.284425638211255993e-01
1.890360301532688636e-01
1.517667375591716938e-01
1.133568562811128611e-01
7.644040058038875651e-02
4.298674504329713653e-02
1.054093708991216127e-02
-1.886608709318604582e-02
-4.521507322079729163e-02
-6.789724778172576136e-02
-8.772754742381208559e-02
-1.050457454699714327e-01
-1.184568231908208757e-01
-1.289556606501073288e-01
-1.377843033644795545e-01
-1.428950310805841284e-01
-1.448282541689661640e-01
-1.449247896911363132e-01
-1.424064989411850390e-01
-1.373756992357468287e-01
-1.320305372251586729e-01
-1.247454930620533475e-01
-1.156757586680470240e-01
-1.064615221802125422e-01
-9.564333606399783028e-02
-8.511425443622583353e-02
-7.380336199245399187e-02
-6.120093592232248025e-02
-4.989726898664115229e-02
-3.916455718022957000e-02
-2.791114004925823733e-02
-1.801353520772522310e-02
-8.312301426385337866e-03
9.745936177443792481e-04
7.782152205717679516e-03
1.553974710463304487e-02
2.213943006267303504e-02
2.692860641103452662e-02
3.133885421806714699e-02
3.503994983363190041e-02
3.831705559575627335e-02
3.999917609816357189e-02
4.201926258268984249e-02
4.179427728942011061e-02
4.088943828704722644e-02
4.119272485312942822e-02
3.958294742393796140e-02
3.840268202355980043e-02
3.605107798171935940e-02
3.334677191482408876e-02
3.115820343090690281e-02
2.723126373639631059e-02
2.446319407493970088e-02
2.154888122604148304e-02
1.805413646154820084e-02
1.451300749738041601e-02
1.138106669725891251e-02
9.083824985624044945e-03
5.431204700345318437e-03
2.012653141459382067e-03
-2.102388837755653217e-03
-3.930735109648343661e-03
-3.626944465999121237e-03
-6.065906333553278129e-03
-8.042609685221670246e-03
-9.189878263300279432e-03
-9.842817496919337508e-03
-9.790102271216336027e-03
-1.067074628594374963e-02
-1.115609595489269225e-02
-1.190481261850569010e-02
-1.274467953497732814e-02
-1.174766899248655579e-02
-1.177714837179644897e-02
-1.132553580972276916e-02
-9.989142994611833332e-03
-9.521310584225572277e-03
-9.119815160959440087e-03
-8.428564143234573008e-03
-6.403305383622760055e-03
-5.934946994271418641e-03
-5.186177053373822871e-03
-3.761028093579036474e-03
-3.656154941942119790e-03
-2.632538822073714896e-03
-1.592323048779074185e-03
-1.319721531026270961e-03
-3.573871193919813533e-04
1.378103042020441260e-04
3.392315074229358685e-06
1.390976441638537304e-03
1.727893258068086309e-03
1.777695189509336752e-03
1.929881428846259980e-03
1.931807536046748885e-03
3.210724156485959477e-03
3.785361437437167326e-03
3.992601911262123188e-03
4.455680965787059758e-03
4.302122677526152607e-03
3.647403671695392466e-03
4.477351266325022006e-03
4.935803047666212882e-03
4.523301359655540997e-03
4.173011823007432945e-03
4.115341003376436074e-03
4.284272576144180535e-03
3.570401532719130917e-03
3.673857099034063926e-03
2.886265256671413128e-03
2.337118216511343584e-03
2.386650910606977986e-03
2.828994724819019081e-03
3.684361466971449502e-03
2.547266897962816370e-03
2.918817855892780026e-03
2.109121481724921931e-03
4.103150129752992925e-04
1.816800537953420450e-03
6.626111213522927054e-04
-5.917513450112527008e-04
-1.472578764658813910e-03
-5.755084207948736076e-03
-5.665871097530683458e-03
-2.706716097377576125e-03
-2.567264516949841532e-03
-2.345464080534175044e-03
-3.733954670170853540e-03
-6.861003507743495752e-03
-7.188196404835554831e-03
-5.230643951154943100e-03
-3.208159536895167571e-03
-3.154671026037253467e-03
-5.225147563835699782e-03
-6.324684503557411602e-03
-7.341626199106934467e-03
-7.876473073777574482e-03
-7.831641872280957831e-03
-8.993001688915064351e-03
-9.149694853652003135e-03
-9.253942865796272593e-03
-9.573256943050778567e-03
-8.573655099786142361e-03
-8.362988391208135350e-03
-7.853807307305872565e-03
-5.773416312836459827e-03
-3.843289450633569256e-03
-1.776656521961391798e-03
-9.007516842908850057e-05
1.352148984429950816e-03
3.671414555912208208e-03
5.462997094138212668e-03
7.329216495355839189e-03
1.008759225638280327e-02
1.232067742920165028e-02
1.340118979085032358e-02
1.519503980464705778e-02
1.865987433356385700e-02
2.177818476395230671e-02
2.422930376060728960e-02
2.561562364360513155e-02
2.617281311994704499e-02
2.664989304468673090e-02
2.921541150320593888e-02
3.155637337768241873e-02
3.132299560050860743e-02
3.252061500945011702e-02
3.242424630068073410e-02
3.076042920768167627e-02
2.897132937594075128e-02
2.658488578716245235e-02
2.330333910035476200e-02
1.943773940291085647e-02
1.498433777524292923e-02
8.264364073297034846e-03
2.440435682664075789e-03
-4.907625338412280498e-03
-1.186211515379848730e-02
-1.686932427279753607e-02
-2.396456201987097814e-02
-3.061516036001495772e-02
-3.901708842550276335e-02
-4.825520694426720103e-02
-5.807910391918547077e-02
-6.651228380808105189e-02
-7.362992875275516103e-02
-8.349735805286322143e-02
-9.374344725975600201e-02
-1.013222761265777788e-01
-1.048039231875683847e-01
-1.100750170192483640e-01
-1.108304506185053689e-01
-1.127046072661285342e-01
-1.119774426856153943e-01
-1.077766612319315948e-01
-1.033203784208433645e-01
-9.413380673061742809e-02
-8.653725311147054955e-02
-7.136510714648817977e-02
-5.942315106144777093e-02
-4.088192272188940352e-02
-2.348197878012527051e-02
-4.991117895108762711e-04
2.291809383393743002e-02
4.784407808930526279e-02
7.496259260225983379e-02
1.000465252913579489e-01
1.327779195019932190e-01
1.559700795594002043e-01
1.926681562797026293e-01
2.122900479778448979e-01
2.511026446278807334e-01
2.703534936668586242e-01
3.025031818873721856e-01
3.239724076727028557e-01
3.423838710636410987e-01
3.652207822040334229e-01
3.621936960959286078e-01
3.849247565896674605e-01
3.594556222195465778e-01
3.770999744865091152e-01
3.272236526995175310e-01
3.288822084993348605e-01
2.651652780258051956e-01
2.333479072629826290e-01
1.704551690636650907e-01
8.800360154383091160e-02
3.648668617508486062e-02
-1.093650855841452746e-01
-1.418943102648008159e-01
-3.483348218906460736e-01
-3.770782913445275830e-01
-6.202929731574221561e-01
-6.794426733813179187e-01
-9.125300424349330752e-01
-1.056496263747485065e+00
-1.210616674142356075e+00
-1.508767505995396441e+00
-1.510560836104787086e+00
-2.020212241827029409e+00
-1.818129713740742393e+00
-2.567591151054774201e+00
-2.150563691549372436e+00
-3.104751273469756434e+00
-2.429608113692993676e+00
4.348969919517016613e+00
4.989947450872244339e+00
3.886344935973437664e+00
4.563115568491662444e+00
3.559490514076732559e+00
4.118824196915733538e+00
3.315411741615585939e+00
1.742611942491101296e+00
5.752420370876021316e-01
1.153740348447462871e-01
-6.919774193820518171e-01
-1.419057367693765670e+00
-1.829113339793990489e+00
-2.898827197921928001e+00
-3.021508518780538388e+00
-4.366106933245543331e+00
-4.156433731426441014e+00
-5.446046484811733812e+00
-4.777725078658478175e+00
2.179834084875500011e+00
3.176472864153957687e+00
2.303950478791302103e+00
3.225907736624372024e+00
2.540937406766004436e+00
1.355920894310462366e+00
6.803281738984386928e-01
9.751593817842267864e-01
5.070743340057701776e-01
5.329839040666101146e-01
3.527891065902635792e-01
2.951502545528144061e-01
2.582669254850286089e-01
4.548804396122119176e-02
1.178652078560904481e-01
2.653916260852359765e-02
1.989659145227102577e-01
1.509356014483261288e-01
2.439623845539447555e-01
2.088647847475777475e-01
2.818336181735832668e-01
3.335131470917602758e-01
4.316764765122584335e-01
4.372972076660570084e-01
3.368595803989007376e-01
2.947496369003724803e-01
4.649732070476750301e-02
-7.582594106774309672e-02
-4.046212865714660656e-01
-5.601265525828207359e-01
-9.718547014721143906e-01
-1.059957637461816038e+00
-1.275791871210259609e+00
-1.337908614081829928e+00
-1.385182669753684648e+00
-1.607369618261293542e+00
-1.620964147277542899e+00
-2.146583364419239359e+00
-1.802910726057409319e+00
-2.602734529867773539e+00
-2.245549452724505901e+00
-3.399171837766606252e+00
-3.016277646626674969e+00
3.709906441783772379e+00
4.421805844664599583e+00
3.324935634507960813e+00
3.982713479904965936e+00
3.014476663104804999e+00
3.491669249642341377e+00
2.772032785513331543e+00
2.978210409360494193e+00
2.590001862682099976e+00
6.022828313011325818e-01
-2.460531473491247567e-01
-1.345670412722604237e+00
-1.727031804827179551e+00
-3.271688288556420687e+00
-3.505127798649851467e+00
-5.185424002001028043e+00
-5.258438830261114028e+00
1.247322292869389670e+00
1.987573590735417062e+00
1.230802313765578138e+00
1.853473299048279177e+00
1.326915909227534440e+00
1.747023138335496828e+00
1.485250101746690810e+00
1.698940357375283927e+00
1.670217021450859374e+00
1.726274273295892225e+00
1.858780284918140513e+00
1.827229693663169563e+00
1.849776987859145239e-01
-3.758969257744234627e-01
-5.890607253631438001e-01
-1.377721656102497860e+00
-1.622399981175530748e+00
-2.276484054210717645e+00
-2.351666128542289513e+00
-3.178711019765845691e+00
-3.067119198869870278e+00
-4.042856748856192617e+00
-3.733421498107679870e+00
-4.768761552871207066e+00
-4.177997174143746939e+00
2.895595302229141854e+00
3.870275222417880023e+00
3.091966912297176684e+00
4.018507711487275813e+00
3.345008359803485209e+00
2.308997129168457896e+00
1.607008026608272466e+00
2.050674109760318053e+00
1.658457806843485205e+00
1.632596796892161528e+00
1.298814760666359369e+00
1.038871166421248660e+00
7.943082425962926241e-01
4.302217919870712226e-01
4.613805964862762732e-01
5.121262836085438419e-02
9.469350774858553699e-02
-2.692988829946832974e-01
-3.212384994204059430e-01
-4.753181619613420783e-01
-5.580958888805379603e-01
-8.224578712164798411e-01
-1.279233468669576324e+00
-1.383571452035674554e+00
-2.266063232996232912e+00
-2.199226586715125720e+00
-3.183979818481319946e+00
-3.060907613390365878e+00
-4.574768321931599324e+00
-4.496553692177407413e+00
2.057089792842591969e+00
2.624240614517816983e+00
1.676783847909303571e+00
2.121391954666423274e+00
1.340476505301270604e+00
1.584522996158302499e+00
1.024963628225533219e+00
1.059469996331083852e+00
7.173155677355451676e-01
5.855800700266176051e-01
4.158223504798236325e-01
1.927104564266413078e-01
1.334694705963834771e-01
-1.048458975228088175e-01
-1.101373387022721584e-01
-3.045932630192568213e-01
-2.906619060127847431e-01
-4.066454372404974538e-01
-3.871566561856920607e-01
-4.130368687562689933e-01
-3.810660206775781100e-01
-3.248613529391156107e-01
-2.679743880565896852e-01
-1.425249352438129058e-01
-4.407771043574213593e-02
1.376206337827239889e-01
2.838610734148316328e-01
5.122071044667620976e-01
7.066454756737950982e-01
9.742204090468444821e-01
1.209500295139602333e+00
1.514352667083110449e+00
1.776894448866717990e+00
2.112510242514606063e+00
2.402426631608252094e+00
1.650767598665350500e+00
4.285763141164943280e-01
-3.512487208980969444e-01
-9.166863673105658528e-01
-1.250722555375608946e+00
-1.444623289120969600e+00
-1.521436343995459906e+00
-1.504316749679050602e+00
-1.464414045949315346e+00
-1.322335928408803429e+00
-1.428160693445964524e+00
-1.060556626726168794e+00
-1.022132179208055325e+00
-9.127668989998181104e-01
1.660347051686565933e-01
1.721867291498757613e-01
3.070937901859327468e-02
1.180426324283059270e-01
4.603573577187181076e-02
1.349176336289016898e-01
9.227995226627616621e-02
1.554084578201064271e-01
1.183769138404646426e-01
1.907686808938572898e-01
1.952749945015722632e-01
1.701186389137530064e-01
1.842356143611950658e-01
1.649391708478856744e-01
8.633192093728120353e-02
-7.215067254459628376e-02
-2.514519036210580705e-01
-3.263534987475830706e-01
-3.674131670278799611e-01
-3.360050764835341153e-01
-2.042367361655395008e-01
-2.162582934723762951e-01
-1.075467410907511301e-01
-4.081491178259111230e-02
2.579210987296811086e-01
2.449037910849268807e-01
4.545114424882265580e-01
4.135509627330457572e-01
3.671900360710912969e-01
5.909491104193560496e-01
5.695264980328469395e-01
6.245475413054958347e-01
-1.779985577435633237e-01
-1.844327450077665187e-01
-1.296747008526874190e+00
-1.151328572450897481e+00
-2.218522221700789387e+00
-1.850839173339841714e+00
5.139908602633287416e+00
5.302313517256530773e+00
2.727629057460381645e+00
2.031473076443684356e+00
5.537534448484304761e-01
3.377829926908100244e-01
-4.332785671153620011e-01
-5.322692089780196589e-01
-8.807296992813853365e-01
-9.987730449858936987e-01
-1.077535855378756846e+00
-1.173182293078706584e+00
-1.062089133653761674e+00
-1.117763860168445866e+00
-9.448427684298102980e-01
-9.626501296795970664e-01
-7.965934262632949903e-01
-7.687206571889931839e-01
-6.389908693338555157e-01
-5.662803103461421239e-01
-4.796254373970059159e-01
-3.852697529233355400e-01
-3.312934427813231109e-01
-2.326538223372459635e-01
-2.003256286265445718e-01
-1.109856848268425678e-01
-8.015124279277974217e-02
-8.086890828922166374e-03
2.400471005110538236e-02
7.853371097802955281e-02
1.166260905853635649e-01
1.553875929870805472e-01
1.979645877145017052e-01
2.241425317615766966e-01
2.668608116827499988e-01
2.899942134481044431e-01
3.289809229471689078e-01
3.500511489573484569e-01
3.814634190524875956e-01
4.007959234635313783e-01
4.256993568713532405e-01
4.467963530615787215e-01
4.649222866598462511e-01
4.855335001755820001e-01
4.959673031426606871e-01
5.118427544327843748e-01
5.170411568390418378e-01
5.243482870754774261e-01
5.208565436783625380e-01
5.181941903960194384e-01
5.075077202132866061e-01
4.904980253694873893e-01
4.658842366843303218e-01
4.227846299125290752e-01
3.757652980211940719e-01
3.069626106397116416e-01
2.325458559086175103e-01
1.352652952360242355e-01
3.377560774272077293e-02
-9.055803877088877685e-02
-2.264918828126889494e-01
-3.768605532436530847e-01
-5.466108913761523747e-01
-7.200724276854966188e-01
-9.282753610714291614e-01
-1.124744907783898018e+00
-1.371016132969439694e+00
-1.588716040581942490e+00
-1.860705343933246825e+00
-2.089809538146996992e+00
-2.327322271679861387e+00
-2.543266227368198074e+00
-2.142800699595888148e+00
-1.445034064398510232e+00
-7.524080082011054271e-01
-1.124671579942204680e-02
7.814544704877837145e-01
1.466778574209390174e+00
2.167537696746520304e+00
2.671398085714063342e+00
2.405549223335302855e+00
2.094134161563165453e+00
1.852830756570616355e+00
1.565548282040632566e+00
1.347531741368759084e+00
1.091208152830335010e+00
8.984656970799076436e-01
6.784952326129505273e-01
5.136996978935062241e-01
3.312406453963872011e-01
1.980087149641314159e-01
5.216595493539977202e-02
-4.896259235418387590e-02
-1.582053318740102021e-01
-5.348907290357958200e-01
-8.444318289238356146e-01
-1.018093704028773416e+00
-1.028000744328761984e+00
-9.704278010244726804e-01
-7.807725841052308713e-01
-4.614029632556784222e-01
-3.919265764001017560e-01
-3.750323235700283586e-01
-3.320516693457473689e-01
-2.993627466779303914e-01
-2.396862553660182860e-01
-1.933470908318098980e-01
-1.256990064010512498e-01
-6.648439968359631802e-02
6.942349207066378369e-03
7.502239355001327770e-02
1.478285975229026716e-01
2.214735178786902403e-01
2.898772845293660083e-01
3.672353221230001408e-01
4.307853895535696531e-01
5.079457334725501205e-01
4.270258305441642088e-01
2.766309112141051019e-01
2.725826742341920794e-01
2.483383802107117511e-01
1.838623503799127756e-01
7.775101445689031054e-02
-1.125824305109109080e-01
-2.944997700193434653e-01
-4.025376723023746939e-01
-5.032353066852599532e-01
-6.621764212034197961e-01
-7.647039872184520082e-01
-8.301643933231296346e-01
-8.748842535431717859e-01
-7.562540271229811761e-01
-5.647120840936789010e-01
-4.319272765086602517e-01
-3.117272156879951073e-01
-1.319564645928320845e-01
1.266025266384189496e-01
3.657507312344808748e-01
5.024157975253801256e-01
5.599451682903956451e-01
6.253054666448705223e-01
6.513723360125620587e-01
6.479382311684599438e-01
6.469294387310358108e-01
5.686825281575293989e-01
4.822371003966432479e-01
3.930685206104209128e-01
3.719583424671050742e-01
4.094408487377051986e-01
4.854704542176487836e-01
5.430948045189252227e-01
4.689142103935447503e-01
4.738833470593469821e-01
5.018833917935724420e-01
3.796999953652154813e-01
1.470992008041272781e-01
-7.447560475528805513e-02
-3.002639304382347385e-01
-5.539122387424222360e-01
-7.671311648013744433e-01
-1.003322334866022958e+00
-1.180701640912626971e+00
-1.231837361798389541e+00
-1.143523629939353192e+00
-9.864399193351487405e-01
-7.706417327120842486e-01
-4.913331882931494254e-01
-2.843580484346103221e-01
-4.313766608489022492e-02
2.502839883418551681e-01
4.573099794399867468e-01
5.590270421175627114e-01
6.079416244789239698e-01
6.707405026849795338e-01
7.249789246187718916e-01
7.183926067459537324e-01
6.518379092006520992e-01
4.857378415281811690e-01
3.295449099907303281e-01
2.529906849198029217e-01
1.782580430613774358e-01
1.559257296053508379e-01
1.347270568531079293e-01
1.215343965526586301e-01
1.186580285232283205e-01
1.498495689521943675e-01
1.983383545443866969e-01
1.446721834726404643e-01
4.137406891286771193e-02
-8.931219435923157257e-02
-2.161235976758776878e-01
-3.751697922602202917e-01
-5.259963372810971816e-01
-6.555667036720227436e-01
-8.155592436082307328e-01
-9.190264766469531388e-01
-9.330177917746629301e-01
-8.881480153468559458e-01
-8.095834474913720102e-01
-6.663194363958757638e-01
-5.474291445071448603e-01
-4.520075484259226117e-01
-2.066062570114323149e-01
6.465830932259680752e-02
2.108901140490428705e-01
3.465598015474755655e-01
4.113139036919446490e-01
3.897018621661733073e-01
3.800800017154202237e-01
3.811956995877385790e-01
3.369401126963204041e-01
2.736316693526504307e-01
3.021263670489431341e-01
3.507432322950488901e-01
4.403113680431978705e-01
5.548437792912899180e-01
6.749477862991287713e-01
7.787575589002734278e-01
9.151076578671775152e-01
1.150342395486512848e+00
1.343394808436067844e+00
1.489368856763302995e+00
1.473509535277483185e+00
1.163479584990768423e+00
5.466455499848228428e-01
-1.259792603394515043e-01
-5.978240426651685313e-01
-9.083387513489905585e-01
-1.076498837386304253e+00
-1.160190278697938560e+00
-1.179724269026550143e+00
-1.150676299085680032e+00
-1.087540358988073885e+00
-9.956646954739397648e-01
-8.913138439183939665e-01
-7.753595145868057426e-01
-6.588456476071603563e-01
-5.394485913262474508e-01
-4.255600587267739376e-01
-3.169127147759810414e-01
-2.177177622733532658e-01
-1.272518165250804412e-01
-4.813205778052398465e-02
2.105343981653468033e-02
8.182402092998691812e-02
1.348829050237231320e-01
1.807044361396255294e-01
2.162767470917965063e-01
2.434784709042122353e-01
2.589024314897825363e-01
2.668910877884507205e-01
2.653859720962450930e-01
2.570651627347972368e-01
2.443274887864438361e-01
2.239032461489411374e-01
2.011843315885630812e-01
1.761464674451251877e-01
1.500817521607812344e-01
1.222511379766120232e-01
9.507612189172420791e-02
6.936915595920090105e-02
4.525221324489103747e-02
2.623872743298449883e-02
8.299358502902809409e-03
-2.551972478432029678e-03
-1.200950089609781335e-02
-1.514528644471746510e-02
-1.540180408842486970e-02
-1.123740266043149472e-02
-1.099751865231840542e-03
1.109841428391517004e-02
3.014177954300881201e-02
4.736950653535977607e-02
7.442265031795441965e-02
9.730588073144770533e-02
1.302991063084142920e-01
1.587634410860822853e-01
1.929451430514190768e-01
2.232381305305480845e-01
2.519803537366803736e-01
2.859053504929042200e-01
3.073859266235889898e-01
3.380766190304791974e-01
3.464453406693106530e-01
3.682380180310148576e-01
3.604589740262982844e-01
3.682045212686230196e-01
3.438757679359575881e-01
3.247625215940088683e-01
2.874439960767963265e-01
2.333829229747136913e-01
1.857904551328236620e-01
8.999129375527317731e-02
3.328537024526416477e-02
-1.051134494841369227e-01
-1.783078292659188990e-01
-3.473145022662537107e-01
-4.489057391337459291e-01
-6.309381485189435868e-01
-7.822922593822571047e-01
-9.504341820751391889e-01
-1.175176123128482297e+00
-1.301144049722967821e+00
-1.611340729761118418e+00
-1.679959204031459263e+00
-2.074892498080733727e+00
-2.088000172002554944e+00
-2.535602455342166994e+00
-2.518931667566017385e+00
-2.955963415396819283e+00
-2.881100529639730734e+00
1.980606845345838751e+00
4.488214668766055127e+00
4.218709229312450404e+00
4.079456598716056703e+00
3.949143677482236825e+00
3.731445024400041888e+00
1.578169410625770652e+00
1.018308608920714065e+00
9.148972547670293221e-01
5.380070024166054843e-01
4.460039890514926331e-01
3.452872719345734254e-02
-5.833600315732612174e-02
-3.782481330108743434e-01
-5.046128033313869166e-01
-7.312494110313443318e-01
-9.215559514119420204e-01
-1.106017946479722402e+00
-1.173144541459818946e+00
-1.081661783294262102e+00
-1.000897619785256598e+00
-8.099634641103812260e-01
-6.255387459312393705e-01
-3.793727818270592467e-01
-1.017457812991540145e-01
2.751560850159580074e-01
5.851882004973039120e-01
8.401539009930383273e-01
1.032738408493908189e+00
1.079965047740280237e+00
7.860923731957205618e-01
2.689420399422829400e-01
-1.630166711060054008e-01
-4.628196938811762196e-01
-6.165726935178896806e-01
-7.132905997663898656e-01
-7.292879472315909606e-01
-7.113918565924444160e-01
-6.603027552187135107e-01
-5.912689711439489404e-01
-5.156515407085140446e-01
-4.293719596347314038e-01
-3.504432315191413072e-01
-2.589834905950922361e-01
-1.674422588381183630e-01
-7.561081112006035054e-02
6.295739043026826742e-04
6.934096752994706181e-02
1.235842861480267174e-01
1.689502200198307325e-01
2.054855361838449912e-01
2.321198033613152134e-01
2.534910752360791664e-01
2.668613950130870882e-01
2.746207785358335540e-01
2.739104832158946179e-01
2.702450876189589346e-01
2.606406692333659292e-01
2.482921387044760286e-01
2.327880900777523077e-01
2.139388187370901417e-01
1.926321199612341939e-01
1.700210575970109161e-01
1.462146001786246430e-01
1.216953769885846803e-01
9.836519380911756816e-02
7.440431880219422478e-02
5.259895729462488179e-02
3.189586713982670019e-02
1.299398161862599932e-02
-3.138272791618101909e-03
-1.871048364888515392e-02
-3.257277299518751557e-02
-4.468671264111390151e-02
-5.570864370902948309e-02
-6.354707120898107908e-02
-7.015712013070449227e-02
-7.668892450579410658e-02
-8.107730033873486453e-02
-8.368203227435525027e-02
-8.530253229410550420e-02
-8.601828501836764063e-02
-8.475347026493151859e-02
-8.217435022972238712e-02
-7.893395353961904504e-02
-7.427032554127371844e-02
-6.773346122694590132e-02
-6.090260049795448438e-02
-5.391910349916748113e-02
-4.640695305601794107e-02
-3.952707752711184797e-02
-3.275818447895334495e-02
-2.548964322803896898e-02
-1.792198797479654937e-02
-1.288985704294021151e-02
-8.381550182801220106e-03
-3.269104554044513500e-03
8.306499606472173003e-04
5.233583578805912906e-03
8.111037770733131591e-03
1.046655716604148051e-02
1.267658077496263899e-02
1.558108063559256705e-02
1.969148195803807275e-02
2.353923437803450563e-02
2.639638381638696393e-02
2.711356651452579217e-02
2.786751540985674125e-02
2.817164666843354967e-02
2.824973856043694331e-02
2.734693636789459897e-02
2.721287729086524498e-02
2.883479411439017481e-02
2.669023707125711686e-02
2.233956544643998093e-02
1.734377537663349400e-02
1.362806450281441040e-02
1.105410178855631420e-02
7.780941851261609365e-03
5.500894436658784747e-03
3.073122077545127617e-03
1.208140665303412964e-03
-6.583792629132716179e-04
-2.646284576978248648e-03
-2.978973223878876586e-03
-3.724330962499225808e-03
-5.429431069728846149e-03
-6.821645050499937878e-03
-7.338471599835457403e-03
-7.123268543102087048e-03
-8.392838750650555291e-03
-8.860623133073194588e-03
-7.988685746933087140e-03
-8.241644437368576478e-03
-7.479783372045939460e-03
-6.956702863826687636e-03
-6.953190464485172265e-03
-6.698290039414040581e-03
-6.186491630941731712e-03
-5.294057095510007471e-03
-4.959617494774715488e-03
-3.463698001576609800e-03
-2.401848837212092885e-03
-2.886572904246554813e-03
-2.456658026949165574e-03
-2.016048398271925307e-03
-1.647694156998589371e-03
-5.839981216006111600e-04
-1.973347128538405909e-05
3.997403697056992056e-04
4.709415979583693457e-04
2.568243104256687920e-04
1.104550581284331149e-03
1.859417172417658203e-03
1.566693090713574751e-03
1.653602563965965618e-03
1.874922137629100828e-03
1.890382435698414543e-03
2.051690964997114446e-03
2.580237861590829046e-03
2.440793076519533460e-03
1.493545765119798016e-03
1.771780611943929266e-03
1.883884030104278177e-03
1.985707964287376694e-03
1.541356496047478070e-03
1.156093070262879680e-03
1.475723595478479425e-03
1.217971981353579113e-03
1.402547328447225662e-03
8.923208296523865539e-04
1.024669242239478230e-03
8.379743479058144109e-04
3.527834190403811299e-04
7.530658452128268388e-04
6.743925610348500913e-04
3.357492486151412645e-04
-9.121509873756007952e-04
-3.984651112613527522e-04
4.149281232439669615e-04
-4.745653030378138440e-04
-4.996748127079707726e-04
-5.312789561184018362e-04
-1.087401761196869635e-03
-1.209314145978372364e-03
-7.116722167165703610e-04
-5.752296558145818034e-04
-3.447649649672514032e-04
-2.369955244514050912e-04
9.675088567438761000e-06
4.476586514805101389e-04
-2.895546348718257106e-04
-1.101654429234141808e-03
-1.875913585539861058e-03
-1.031922593452684568e-03
-5.490753689308498428e-04
-6.394025599771083722e-04
-7.979452659419766563e-04
-1.857437065541277677e-03
-1.324292512324696689e-03
-1.779766590633749274e-03
-5.182667996058825657e-04
-3.849473213036361079e-04
-2.571484077002166111e-03
-1.830596222731979000e-03
-1.377349014512013053e-03
1.974356916130100628e-05
1.650250065053989346e-04
-9.399699231213578090e-04
1.298742317041261382e-04
4.354556516356203658e-04
4.577970303593707465e-04
9.122788865623085745e-04
8.351820870303354807e-04
7.893195450761668428e-04
9.425709006925646902e-04
1.003707867992820364e-03
7.730974475792930060e-04
1.201961931859736599e-03
1.917330540950888109e-03
1.995132746899527191e-03
3.056008869911446945e-03
3.673169665724175005e-03
3.179150009835679091e-03
3.630788166070344786e-03
3.842079997426865040e-03
3.447824845575825879e-03
3.377120831566543871e-03
3.095513800126102350e-03
3.336625281758967901e-03
2.867350699547903826e-03
2.384879769496370174e-03
3.057089200455256374e-03
2.420784827345973458e-03
1.706538580735530910e-03
1.825234845460610824e-03
2.011581791242512615e-03
9.351936213984773406e-04
9.927828419209410002e-05
-5.327612940388317796e-04
-1.444098416910187359e-03
-2.199875234702209064e-03
-2.895869696970930322e-03
-3.352461302281434415e-03
-6.102156275417241170e-03
-6.484783037955772246e-03
-7.075324709588530318e-03
-9.249980058229989935e-03
-9.198877930096242481e-03
-9.924185263589820408e-03
-1.036894229467732326e-02
-1.094033723100948374e-02
-1.105635003425792066e-02
-1.116400550786994170e-02
-1.238749379763816327e-02
-1.201765595174462617e-02
-1.100251325810197058e-02
-1.106019365080840311e-02
-9.359827482698670348e-03
-8.767308510334286681e-03
-8.981408814180883923e-03
-8.556149200755338441e-03
-8.847257233668866239e-03
-6.832649211981960298e-03
-6.367219827078324582e-03
-4.275083093638788398e-03
-9.342393018197771900e-04
1.882351420657746906e-03
6.377339144098761667e-03
1.077167819832108332e-02
1.633030119964616958e-02
1.950859991891974385e-02
2.378564858347919850e-02
2.899354534016439222e-02
3.186317571593946796e-02
3.619326378798435467e-02
3.940298466513827286e-02
4.155150971674696075e-02
4.420829361691319681e-02
4.482060506716255971e-02
4.500849316933507038e-02
4.605189120881984788e-02
4.536071028250765469e-02
4.208849972284855329e-02
4.050071161301879719e-02
4.012321547776167424e-02
3.734943484849729406e-02
3.425042847565580584e-02
2.946182570252217983e-02
2.386491544415407506e-02
1.638686146800892585e-02
6.961432343570580876e-03
-1.440914441944833981e-03
-1.176056563113427392e-02
-2.395681252774379752e-02
-3.532986694996868848e-02
-4.693725995459020750e-02
-5.998679304961360148e-02
-7.228676693663113606e-02
-8.418480120809548883e-02
-9.741844529900346716e-02
-1.092525974870770800e-01
-1.178471871384681319e-01
-1.262496250351659854e-01
-1.307677530920992592e-01
-1.353641577968022758e-01
-1.418725020814214921e-01
-1.470022033631069869e-01
-1.464450888937856299e-01
-1.462164074769708444e-01
-1.445999209603459346e-01
-1.379369186054234531e-01
-1.330654338342130705e-01
-1.191404834397991608e-01
-1.079597826141467515e-01
-8.832754695841990578e-02
-6.987566890432456157e-02
-4.626425223682836818e-02
-1.903295775609629287e-02
1.426169185181810038e-02
5.149552122894028583e-02
8.393896117718559202e-02
1.291517137270955795e-01
1.609918988037430942e-01
2.120569820873649536e-01
2.484336926664829359e-01
3.033563818405953239e-01
3.392909304729922471e-01
3.807119240542369276e-01
4.152637552002269583e-01
4.422666937866485126e-01
4.792292067561907398e-01
4.847284499394558521e-01
5.217106824986659230e-01
5.008757820978045894e-01
5.313163247164796044e-01
4.901293202262477777e-01
4.962289789117748096e-01
4.395744319739059991e-01
4.028573341108908634e-01
3.463533319526319598e-01
2.480707469964911760e-01
2.001118389985903079e-01
2.638451427339021452e-02
-1.455330688436805471e-02
-2.598654036588565197e-01
-3.102795202789328521e-01
-5.936006963491184951e-01
-6.996329949446294938e-01
-9.689381621406961687e-01
-1.193381175710820585e+00
-1.373730505499370702e+00
-1.777280086893076927e+00
-1.802565651232523436e+00
-2.432499614463664361e+00
-2.266025885520770444e+00
-3.130079496727479427e+00
-2.776616049505490125e+00
-3.791277675852601003e+00
-3.232851895858604774e+00
3.438729980965332444e+00
3.893792975048813609e+00
2.861692958902898098e+00
3.216949292845364905e+00
2.357638455024614554e+00
2.532391273995278080e+00
1.902905491403216409e+00
1.883565048739012537e+00
1.480632524961871921e+00
1.303730621766609810e+00
1.081304637483223807e+00
8.125689142242065177e-01
7.022420121056125453e-01
4.134879014475278947e-01
3.540169746787575900e-01
9.945357067550197883e-02
4.638388098010337579e-02
-1.451288899435221325e-01
-2.124056141342071102e-01
-3.350300268006171089e-01
-4.159245932134975066e-01
-4.811728907836303470e-01
-5.672722515498140883e-01
-5.938762214999484534e-01
-6.696916233669589769e-01
-6.764011529681349666e-01
-7.334396276466362830e-01
-7.314918249326690658e-01
-7.628021839862670905e-01
-7.602301507401612035e-01
-7.680323206732464492e-01
-7.633840725464301480e-01
-7.507369644766228589e-01
-7.403009085235587872e-01
-7.126266369249261157e-01
-6.922276589904282629e-01
-6.497911291074165430e-01
-6.154963461193103669e-01
-5.599144801253916892e-01
-5.083200104325453772e-01
-4.364254421729760747e-01
-3.643492286037658401e-01
-2.725632611448670639e-01
-1.772157642527077137e-01
-6.333711981612144548e-02
5.585633609554753465e-02
1.933704531213595035e-01
3.408031283076725093e-01
5.007127557348585167e-01
6.795420079142167058e-01
8.582030668128269868e-01
1.073858927338853908e+00
1.268292054434963401e+00
1.519030414429526576e+00
1.727043703221640802e+00
2.008936863319604083e+00
2.228462914853901911e+00
2.537597163787156607e+00
2.774212588583779393e+00
1.848153847318846799e+00
5.886644108895302541e-01
-2.392363312098513273e-01
-8.550897463515709784e-01
-1.217039173898682547e+00
-1.461185200542644891e+00
-1.562168126125627943e+00
-1.596064776450433653e+00
-1.558523545178784664e+00
-1.481396500841366093e+00
-1.376348157943112493e+00
-1.239162176371663815e+00
-1.102724500988009559e+00
-9.481177309931270170e-01
-8.061069300299588125e-01
-6.568023126614794815e-01
-5.198624874198545243e-01
-3.848324260576505562e-01
-2.627585021674484489e-01
-1.535876496052782647e-01
-5.750980225699475756e-02
2.230413965517885622e-02
9.479566426919655564e-02
1.517843552638538096e-01
1.972371390049141304e-01
2.297089088721412375e-01
2.549022096395450188e-01
2.692679911442179552e-01
2.771587732929302605e-01
2.786445356830196118e-01
2.750805571579379993e-01
2.656137988022468921e-01
2.524566866774660134e-01
2.388962083531115388e-01
2.242052824936059396e-01
2.108053918869017274e-01
1.971934462456275128e-01
1.873873080456803786e-01
1.797749059471445143e-01
1.734376920455947824e-01
1.708119046782887729e-01
1.711769984877783979e-01
1.755041789836209176e-01
1.809632117863558265e-01
1.904252307735772587e-01
2.034060358643466904e-01
2.195678312749268779e-01
2.383833359316919198e-01
2.576719592867194875e-01
2.787152528993583345e-01
2.990810494294940391e-01
3.258615183299386486e-01
3.453990296596082255e-01
3.632757218898690632e-01
3.710595528765383566e-01
3.752719498619683236e-01
3.755418942052952680e-01
3.630943090582405830e-01
3.439402926090125989e-01
3.059902618791892071e-01
2.652493401439426912e-01
1.975587471170269227e-01
1.311433490354823594e-01
3.821516162497121116e-02
-6.061884930464486732e-02
-1.802209160325702331e-01
-3.172159927410112545e-01
-4.630378591234252661e-01
-6.419112274928873152e-01
-8.137464684899478051e-01
-1.035129567073941770e+00
-1.230612489592237013e+00
-1.489577625949310535e+00
-1.705582665649068463e+00
-1.988221378890272728e+00
-2.221103588916949256e+00
-2.480923486504838404e+00
-2.656537853548253558e+00
-1.881574316188473484e+00
-9.834931604611725220e-01
-1.149901650746982806e-01
8.176227516728966638e-01
1.891092861555382587e+00
2.949515835772851702e+00
2.829741309363516422e+00
2.478645260271050255e+00
2.242144354153121188e+00
1.914039453005324187e+00
1.688967910916100879e+00
1.396582631134548391e+00
1.182279549573693966e+00
9.328217690519180483e-01
7.312067991355213348e-01
5.289063605513004696e-01
3.445323066744423457e-01
1.871843261310379702e-01
2.340074751402321240e-02
-9.137472162988591329e-02
-3.036410299278252123e-01
-5.852100833719077189e-01
-8.218106065445398567e-01
-9.457319465411043735e-01
-9.726073641004844283e-01
-9.727156583086572494e-01
-1.002879822277485289e+00
-8.820115350311366065e-01
-6.363730571688247517e-01
-5.828694593128899148e-01
-5.750906776147942656e-01
-5.236858374592923138e-01
-4.903083093740343568e-01
-4.217472294713435765e-01
-3.650331518096550099e-01
-2.801724009117628755e-01
-2.019076516417520617e-01
-1.017198363523720284e-01
-4.886251569454436172e-03
6.367597866191543332e-02
2.237884433884088642e-01
3.487741388093468786e-01
4.817490904941484353e-01
6.180454032402326048e-01
6.917149555127334315e-01
7.551508148806219678e-01
7.130807811027071175e-01
5.808580864629049323e-01
4.030786908213609965e-01
2.541370182510808706e-01
1.168383715698260716e-01
-6.167816471482256979e-02
-2.857275162510004574e-01
-5.554388952425044490e-01
-7.440221291684515625e-01
-7.648807219473772179e-01
-6.812402973760844915e-01
-5.888003827080482422e-01
-4.341120677771251879e-01
-3.103133154436998886e-01
-1.434324572172612222e-01
1.322432175407459720e-01
3.252891822732648652e-01
5.328950212973899703e-01
6.491571325012570615e-01
5.852524949955898448e-01
5.075355638985462603e-01
4.815604762742390355e-01
4.383962211066126380e-01
3.281711608607951192e-01
2.560020198690723392e-01
1.600380134382049235e-01
6.505768579125892348e-02
8.359959950304024501e-02
1.031705625583936442e-01
8.651190145948074728e-02
6.300578755697641697e-02
9.392443313540205230e-02
1.711528193514090246e-01
1.535193790561451554e-01
1.100127008524130479e-01
6.050369386739727628e-02
-4.902629275038476730e-03
-7.414601177623030004e-02
-1.480600817345863462e-01
-2.535566233589713336e-01
-4.506500342773699930e-01
-5.275396253254784895e-01
-5.208329661012498502e-01
-4.535231651998552493e-01
-3.265403738070013495e-01
-2.360962502089093140e-01
-1.693199350934427860e-01
-1.263055919891646617e-01
-4.916908105945860807e-03
4.751502826876581598e-02
3.351058450051906668e-02
-1.965619338373209707e-02
-9.779178480516681482e-02
-2.221126489590119768e-01
-4.093487253354519684e-01
-4.980460279419841596e-01
-5.909571995758233776e-01
-6.887573368737627266e-01
-7.289760064479012813e-01
-6.161914018497307577e-01
-3.993522611475446293e-01
-1.128672952989726447e-01
1.681781454363355521e-01
4.785163291187087276e-01
7.370316829011028803e-01
5.834306442722023700e-01
3.895835274355474720e-01
2.739119860176132959e-01
1.374796624348870733e-01
6.033000840812396959e-02
-1.365140004587916955e-02
-4.841408526881813001e-02
-5.678397768193477191e-02
-4.352202099203972274e-02
8.642138571244628586e-03
7.702842881312735313e-02
1.840123531331406548e-01
3.117452141516648956e-01
4.633608803689965305e-01
6.566602047807291731e-01
8.418693509435579703e-01
1.098764103874676934e+00
1.310710451666080134e+00
1.624148221239206880e+00
1.859095254918252893e+00
2.214154402946328926e+00
2.471055593459215327e+00
1.416700654397227366e+00
1.247790775926098661e-01
-6.604158865827813862e-01
-1.247072699792765693e+00
-1.546790667874639036e+00
-1.747878991767323642e+00
-1.790010260070686643e+00
-1.774269942977467096e+00
-1.688881184709012828e+00
-1.560698248443605607e+00
-1.408662670017977847e+00
-1.229301556076884960e+00
-1.056723030054935730e+00
-8.657997988782839549e-01
-6.924255386719433414e-01
-5.118243582130956870e-01
-3.538668286671537988e-01
-2.009360716682190295e-01
-6.526484345077587790e-02
5.740284352798286083e-02
1.649608009791422858e-01
2.542505913311844390e-01
3.322706425223191928e-01
3.923640402427921448e-01
4.467062963077466087e-01
4.844850093334779340e-01
5.109615205670177129e-01
5.239122496085679703e-01
5.293265760373008222e-01
5.219805153742919090e-01
5.060590306605512456e-01
4.837246574710690750e-01
4.541424976721742945e-01
4.205683182161281675e-01
3.793676820728870691e-01
3.389238244566494807e-01
2.957361313074158282e-01
2.514053040760182434e-01
2.078088839670132471e-01
1.649727810794980876e-01
1.250076726625803936e-01
8.527535345652981214e-02
4.864662495915078599e-02
1.272218866016933125e-02
-1.745637085030715685e-02
-3.948003829139534737e-02
-6.691449963640373755e-02
-9.416645732664008506e-02
-1.144668208223301453e-01
-1.321875011171136094e-01
-1.465766423491143833e-01
-1.562740597674994181e-01
-1.624477898653046704e-01
-1.650816501600732844e-01
-1.644995757085018495e-01
-1.623092984406181716e-01
-1.575305343347550568e-01
-1.506997066185136736e-01
-1.414528648280350964e-01
-1.312091925725736297e-01
-1.204559551095994996e-01
-1.079994230140055578e-01
-9.448924680972203838e-02
-8.187492354053188537e-02
-6.943892149731589747e-02
-5.598324990317227190e-02
-4.416212165394794997e-02
-3.188966414057897714e-02
-2.008333049100755052e-02
-1.050568682874675197e-02
-8.456159917214767230e-04
9.212612308839115971e-03
1.830925502266253502e-02
2.510874164950060994e-02
3.120741345016025264e-02
3.695054445491612050e-02
4.130408451092015126e-02
4.445922532211910722e-02
4.683211926681907222e-02
4.822467946751861356e-02
4.847483866012586295e-02
4.739703249671549379e-02
4.641620348832758980e-02
4.542370055229168202e-02
4.189799849126447928e-02
3.776635332379767174e-02
3.395216696810274271e-02
3.148803789212392679e-02
2.997668480207923980e-02
2.719322504458859813e-02
2.445434871212098793e-02
2.093128963759825767e-02
1.694597142944308243e-02
1.318751818791543545e-02
9.817981542102276193e-03
7.258735988544616491e-03
3.405735300107029517e-03
-1.376919677036396450e-03
-4.952694115914878931e-03
-7.682940585533450800e-03
-1.029010547006750133e-02
-1.154455052630417276e-02
-1.190854706522364963e-02
-1.389897586206490648e-02
-1.433128755240366259e-02
-1.286278302667414469e-02
-1.216009222564495319e-02
-1.047811547570538966e-02
-1.001403705082766493e-02
-1.012251052505121901e-02
-9.964799767841807376e-03
-8.121620300948859117e-03
-6.057572464930518347e-03
-7.245273834484942943e-03
-7.801505146434607740e-03
-7.676181604477628345e-03
-7.013618393123369904e-03
-7.319376868031638589e-03
-6.774940780222466624e-03
-5.983357602048645224e-03
-6.288729617509829575e-03
-5.062995168705996044e-03
-4.405126106091773047e-03
-3.040843940690719435e-03
-1.863336548541849255e-03
3.249684552459244230e-04
1.928404899571302747e-03
2.715723641761137036e-03
4.379225833517196714e-03
4.086818910259826590e-03
4.530638119127911555e-03
4.743342816029522818e-03
4.010440280823771020e-03
3.088774008022549498e-03
2.520238291133802128e-03
2.057276590417036685e-03
7.305172428303122537e-04
7.368405869802828467e-04
9.252423137630534644e-04
7.966994813821317439e-04
1.853109103133443979e-03
2.617065858337474030e-03
3.233236165052743617e-03
3.995595456316483954e-03
4.466903237637015467e-03
5.614518221694930408e-03
5.279640028403522964e-03
4.280122095477820882e-03
3.465021234620998397e-03
1.614419285493663182e-03
3.510673111160071344e-04
-4.463773481682654573e-04
-1.779746278033479071e-03
-2.865537015558582666e-03
-3.234246043957654873e-03
-3.387161618075439865e-03
-2.403379679096503616e-03
-1.362458501909642088e-03
-5.877200581490193629e-04
-6.472750545085791812e-04
-1.027075522652062161e-03
3.725507069961778855e-04
1.082775719938171809e-03
1.376123214726534877e-03
8.930318271793680467e-04
-2.147139237796335740e-04
-6.475716707981772017e-04
-1.508952310762225017e-03
-1.942451183368789323e-03
-3.799477190833054543e-03
-5.252688766070347931e-03
-4.516373120444006073e-03
-3.499054763887001970e-03
-1.412548340786154086e-03
4.297292484819166883e-04
1.319786919191595978e-03
1.401798363791546039e-03
2.705942853242854652e-03
3.303501629782569331e-03
2.418474324305302549e-03
2.618856484337008135e-03
1.748469579025738055e-03
1.297381860596435923e-03
3.905260902999317923e-04
-3.289400144647596901e-04
-9.840542655774838811e-04
-2.577320414118555985e-03
-2.986309492484485410e-03
-4.477496435794136101e-03
-3.654249740568209226e-03
-5.492148800125123140e-04
1.543509999907095474e-03
2.139719890574882065e-03
7.188416510335771028e-04
1.672428301511024807e-03
2.577827990525891760e-03
1.924835192947757121e-03
2.303855224889058816e-03
1.945366648158382891e-03
8.659056395320260079e-04
-5.033902734660146341e-04
-4.541879547145836419e-04
-1.221475577495477515e-03
-1.990415534013963844e-03
-1.484666250624799497e-03
-2.146584268738800736e-03
-6.481674216923645699e-04
1.000077328403869894e-03
1.274816576328835580e-03
1.654493460614474666e-03
2.005269514911456850e-03
2.393037763070472029e-03
3.119436170522602719e-03
2.892844806900892775e-03
1.044638436718961635e-03
1.213428106672638940e-03
9.051475157520587084e-04
-1.056852360067530097e-03
-8.544916296385165382e-04
-1.053051069878348060e-03
-2.952101223406891888e-03
-2.997994573605072648e-03
-2.489017041581362971e-03
-1.782376160037442078e-03
-7.478581135231161543e-04
-3.374334448667175128e-04
-6.236861086141086245e-04
-6.156394669464564009e-04
1.416768100317737297e-03
1.564030099483102853e-03
1.171778684658668357e-03
1.067360179924437599e-03
-9.616444397470187439e-05
-7.902763153018652585e-04
-1.445788771279737711e-03
-2.368154504903951033e-03
-3.535655158220526485e-03
-3.961702985644109838e-03
-3.146600339402517207e-03
-1.048808454649146488e-03
-9.046865469715312507e-04
-6.078661403011609721e-05
1.933461829333691599e-03
1.254563708534427082e-03
1.863724713466800810e-03
3.218187725398298678e-03
4.391216544272848014e-03
5.189927172518999515e-03
3.105064534553691503e-03
1.385813659258189334e-03
5.966017670494131245e-04
-1.099105442985549895e-03
-2.162048288991499315e-03
-4.821927227914668199e-03
-5.494959823830228643e-03
-2.040719112103685576e-03
-3.979698365269938041e-04
1.141757843909364887e-03
2.177316745478634873e-03
8.663119544600850035e-04
1.257837427695233544e-03
1.631069636755503541e-03
5.572230958388873644e-05
1.998178499399301511e-04
-1.481830171604043645e-04
-8.781964965702438331e-04
3.151755688339352539e-04
-2.357060332209930369e-05
-4.998566930418152539e-04
-4.852871273402552471e-04
-3.618762189262413552e-04
1.247702196612169093e-03
1.988991414174484055e-03
1.929075767477934434e-03
2.015583522216194811e-03
2.176570747486828144e-03
2.259631671025381320e-03
1.645503229314747512e-03
2.366404325585576198e-03
2.570260254732983397e-03
1.662530549509717414e-03
2.040137188974845348e-03
1.413047423727642341e-03
6.893291346561794628e-04
3.189506858213868507e-04
4.457480037961364079e-04
-3.320850668856188724e-04
-2.867739353757334849e-03
-5.282656496450246087e-04
1.068461058249803568e-03
-1.854772706658457202e-03
-1.550735487712084394e-03
-1.053865581642097517e-03
-1.989036159510147294e-03
-1.608861809999276261e-03
-1.799005249133434157e-03
-2.479799254037377918e-03
-3.488898522603457730e-03
-4.543287792978077319e-03
-4.730177489510947741e-03
-6.090822176459604817e-03
-7.371056639384108988e-03
-7.984141171402435802e-03
-1.035814104700763690e-02
-1.140986462911816254e-02
-9.417798177395891174e-03
-7.266790815969793871e-03
-4.785749939937987418e-03
-2.887236912706515456e-03
-3.467499665907832970e-03
-2.733115834663137154e-03
-5.806096204917406134e-04
1.575979373722319506e-03
1.644725224183990258e-03
-9.253388910752922709e-04
-6.749728098959834229e-04
3.241706355722436331e-04
1.397470105985038069e-03
3.614365951335469195e-03
4.833974764375393272e-03
6.544731522429774601e-03
8.804551743778307044e-03
1.084773436978993255e-02
1.371710670528852524e-02
1.691734344540216095e-02
1.961568332735951284e-02
2.220553415074091874e-02
2.329347420850984979e-02
2.477479274630189909e-02
2.667273374376282272e-02
2.685732145391059658e-02
2.651999543947718488e-02
2.586766887246300453e-02
2.444186557967283763e-02
2.279789606764572735e-02
2.208171032856879462e-02
1.902583980581056683e-02
1.567916479782493697e-02
1.312088839070160197e-02
9.945657340301582161e-03
7.624048763536964146e-03
3.939920846838773985e-03
-5.876479089490097615e-04
-5.682409245750534750e-03
-1.094685049998566848e-02
-1.660328124811991102e-02
-2.303676119689463189e-02
-3.113725279973519541e-02
-3.882523403493041980e-02
-4.723168187212242047e-02
-5.557262466183637839e-02
-6.267798541599203799e-02
-7.033995411206003801e-02
-7.740382901951685379e-02
-8.355338883299466557e-02
-8.708172621821096138e-02
-9.133428224739006951e-02
-9.089911168326646196e-02
-9.202652286317600239e-02
-8.999106801797585042e-02
-8.696588824720660749e-02
-8.265309719976574043e-02
-7.451422811988632489e-02
-6.922032402551896169e-02
-5.793162692481686887e-02
-4.925501106791495276e-02
-3.325888760197436012e-02
-2.007556838780437738e-02
-6.311687527942286312e-04
1.692929892066560166e-02
3.896506214240686577e-02
6.121015315010919222e-02
8.441551154168371041e-02
1.112168153930242348e-01
1.319914952804242814e-01
1.665058665496641499e-01
1.831039213744647953e-01
2.158593134367010336e-01
2.297234120833376303e-01
2.607274562143216956e-01
2.715027199439372652e-01
2.916151205277774938e-01
3.018802372471069417e-01
3.035831079897722273e-01
3.173760141713131699e-01
2.946684998505979536e-01
