Voltaje_EMG
1.877187968027616005e-02
5.582594109393840959e-02
9.684977670654461301e-02
1.427784590729922753e-01
1.227563132239099242e-01
1.256068079023453521e-02
-1.190092078862420716e-01
-2.219062252617588216e-01
-1.849793283980333547e-01
-1.173356028952953628e-01
-1.247311537770830758e-01
2.059230831252963773e-02
8.650416623718276687e-02
3.922351117742580578e-02
2.185212968826780872e-02
2.153835025500508982e-01
5.370734481075893907e-01
7.085809973745642587e-01
6.869120622300198820e-01
5.932734804823116548e-01
2.463389582936957589e-01
-3.432850535206341536e-01
-1.608138600325196566e-01
-2.024733138587926640e-01
-2.501445789238442852e-01
2.176003364091002035e-01
-7.824846961772222165e-02
-3.195512839525617155e-01
-2.449360738899982737e-01
-3.034100760005097874e-01
-4.161175961403660861e-01
-4.137968154771567431e-01
-5.411752375746466948e-01
-5.051821945257798374e-01
-5.624840126902933557e-01
-4.104240136937154504e-01
4.821486361989435476e-02
-4.914222766118999663e-01
-5.213387306620675954e-01
-1.313289636390047588e-01
9.431835537776078748e-02
4.844816270464900043e-01
7.255590971056048444e-01
5.698010970566320665e-01
6.900624749231548671e-01
4.788473911374910852e-01
-6.909919854407100548e-01
9.028774566995225737e-01
1.647187648184933462e+00
-3.093608617979637376e-02
-1.462615946643411879e-01
-2.460371436283149693e-01
6.782715100157465926e-02
1.741678784905546229e-01
-5.955107433779954773e-02
8.235807988015242387e-02
-3.384945675455692804e-01
-3.716995749756706879e-01
4.136291669412380662e-02
9.609035927958894940e-02
-8.547989930544427906e-02
1.039871939910021331e-01
2.707244335785701228e-01
-1.436075612724738160e-02
-3.607849640509450673e-01
-2.924755112319271100e-01
-1.765109845264865029e-01
-4.119387914175930421e-01
-2.634972345676044325e-01
-5.830878089031363287e-02
-2.349892791985364882e-01
-2.281281134880194794e-01
-2.592890893993213819e-01
-2.743596310429984308e-01
-1.943626204270838542e-01
-2.566766628043743448e-01
-1.890670824110084469e-01
-1.678760122292424772e-02
1.371733846399429690e-01
3.160965689228389386e-01
3.022710586777550001e-01
2.918491520115266136e-01
4.732449328964994928e-01
5.573569839352685573e-01
5.985141648361673727e-01
2.371458600750782630e-01
2.268705644551593514e-01
1.312110076205980635e-01
-1.740663569420131118e-02
7.275646115021286997e-01
2.307484575557177398e-01
-4.278598750245106164e-01
-2.797997074781515270e-01
-3.376240606975051128e-01
-2.613190299319805288e-01
-4.510560213168380850e-01
-4.702323880188427618e-01
-4.750668751750566909e-01
-5.511292275387058570e-01
-2.816704664360630828e-01
-5.769217532734488563e-02
4.133678316553167087e-01
5.211377366293019620e-01
3.726100393893073681e-01
1.620658291077376745e-01
-3.991280099161809147e-01
-6.761633851793632521e-01
-6.113406783591610605e-01
7.571575861592230727e-02
4.438608480494761199e-01
4.037724994508161691e-01
-2.906488316693843221e-01
-6.066312075495488010e-01
1.118413685302955540e-01
3.586366610760411411e-01
5.876633788908376399e-01
4.589319608438298115e-01
9.383966905526388569e-01
2.426285812150081878e-01
-5.674126176146725431e-01
4.721353404602396386e-01
3.964986514085477864e-01
3.889325627795585660e-01
-8.946376632189576017e-02
-7.257067564652994740e-01
8.821067732500625924e-02
5.448609819890138928e-01
-2.034892670370535075e-02
-3.990946532739163555e-01
-5.353366828721305426e-01
-6.283791886429804796e-01
-8.579563849122363861e-02
-3.706251035489622203e-01
-4.842405295173515256e-01
-2.880273393949729921e-01
-3.705268627995218500e-01
2.437031272685914463e-01
2.597333000321322416e-01
4.500161450748288439e-01
6.994085244810857027e-01
5.271134100916818888e-01
-1.878676518749294588e-01
-4.938076243498671358e-01
-1.886642812592276008e-01
-5.982709890950538290e-01
-4.923667912675015745e-02
1.232556129664717226e-01
6.074110849857647931e-01
4.960017434571341033e-01
-4.440479029088915119e-01
-1.557513084102782330e-01
-1.278233059138245142e-02
9.115925809476046471e-01
-2.631989694381170475e-02
-6.372995529415377280e-01
1.025043264834483020e-01
-3.338441088766674336e-01
-1.239067232995516021e-01
-2.447382360833031956e-01
2.716645706582634934e-02
4.192063780040425347e-01
7.961618883483471965e-02
-5.813949077527890141e-01
-1.751751325287219385e-02
3.830919860292565371e-01
-6.618787620488729706e-01
-1.905169166371447620e-01
7.943232751905922040e-01
1.622343019988989443e+00
1.015116053983630584e+00
-4.481778500274082311e-01
-4.446362568231531642e-01
-1.741681669256804066e-01
-3.086877191653666364e-01
-6.594509813335012183e-01
-5.766698597686946703e-01
-4.134307131591508644e-01
-2.581643091726912309e-01
-2.570385385735926564e-02
2.531576314345634904e-01
3.486896886651704719e-01
2.884812663930844678e-01
6.061047707827932340e-01
6.366675087459739979e-01
4.267126346631726630e-01
8.383879178066178106e-02
-5.975989046733927168e-01
-8.313668228353325862e-01
-6.242711750329625886e-01
-8.889474480944257184e-01
-6.321180010971579888e-01
6.812960322574079797e-02
6.611072810543143774e-01
9.443651849555620981e-01
3.047254651294525885e-01
-5.913134648927649284e-01
-4.867360134229315460e-01
4.724019813195249329e-01
7.453465496815450120e-01
3.208959724082877107e-01
-6.320909036409083637e-01
-1.403549213045034438e-01
-4.406478928895275482e-01
-6.733641935382796984e-01
3.602598639325080287e-01
-6.128953518119657495e-01
1.652444760023311421e+00
2.534149966660941722e+00
-8.866155921334231693e-02
-6.391072858431330328e-01
-7.261537878070016827e-01
5.898200579499316420e-01
2.696496469123204065e-01
-6.701207416763184099e-01
-2.526876613030487606e-01
-1.057562394802533667e+00
8.982801606338689515e-01
1.409164403726214765e+00
-7.883964380358032820e-01
-6.643855927707648101e-02
-2.940459082470455732e-01
-9.390543151371266717e-01
-9.914543190713749343e-01
-5.889101133662528742e-01
-4.495849279882182525e-01
-5.777234449378173542e-01
-1.570094823867562717e-02
-9.028960436055414318e-01
2.612465183709780092e-01
9.211982365154212093e-01
1.099589967014366731e+00
1.361510537213943550e+00
-4.244261665664691430e-01
-2.736762900861275938e-01
-4.264800382922677158e-01
-1.322036770958705976e+00
-1.140944979311268703e+00
-6.066116181120327633e-02
8.265334277010677466e-02
7.116613847316499708e-01
2.218631818084219720e+00
2.377779097318673429e+00
1.770810896673394197e+00
-3.143264553667488026e-01
-5.238246294030834971e-01
-7.369660458458016095e-01
-7.300951485817415154e-01
1.019319425633284482e+00
4.580031447726584659e-01
-4.396628880634768644e-01
-6.503131399959087844e-01
-2.526441515232725754e-01
8.367959756316556419e-02
3.862982333700968329e-01
7.892377921305335220e-02
-3.523719450095035288e-01
3.424531263285418570e-01
-1.974900080759348087e-01
-8.759272530681353475e-01
-9.453956489473100966e-01
-7.371119711053477630e-01
-6.555308676756198549e-01
-7.600217905744814928e-01
-1.003234870700844716e+00
-6.043853560486558418e-01
8.462139439969078580e-01
6.594075471510318920e-01
-4.769886937826133266e-01
-8.031047178660719599e-01
4.599613779298464822e-01
1.641974695707816512e+00
1.142837525421502409e+00
4.183832102931550612e-01
-3.142310997109286075e-01
-7.522143067707678377e-01
-1.274267103813462310e+00
-1.043232321700230836e+00
2.840646396115613648e-01
6.743181534015595391e-01
1.176383349776375375e+00
1.148080318393449817e+00
1.446519039855412636e+00
1.037263849749692879e+00
-1.375182445518797092e+00
-4.787278165948927189e-02
5.759085098410449133e-01
2.923937880930890243e-01
8.587169711999151911e-01
-5.447342105092916054e-01
-9.472863793829864321e-01
-9.515803541868309567e-01
6.964189154732186582e-01
-1.384093762182805332e-01
-1.043365767805006561e+00
1.470756112310137309e-01
-7.960181129406078693e-01
-1.114459921059839098e-01
1.070983948060187929e-01
-1.855235956668223607e-01
-1.083997287688529321e+00
-3.146359397775108646e-01
1.828559630879480036e+00
1.747158877692178258e+00
1.306066896439229685e+00
-7.507765235050600783e-01
-1.247466349866914737e-01
7.732677380292591884e-01
-7.297656217841961279e-01
-5.999937907821232264e-01
-1.011572644548912159e+00
-4.484520319607898653e-01
3.495814518538861715e-01
-4.952410947778860262e-01
-6.969559800317993714e-01
-6.839867409814490706e-01
-6.154311544315491656e-01
-4.363532435993501268e-01
-2.508797280328283197e-01
1.800301572784361870e-01
6.084052987466378459e-01
1.772081846799241411e+00
1.706249032193549287e+00
-6.240716209825214467e-01
-8.040323767993106108e-01
-2.479642730241068960e-02
3.925638735371032584e-01
1.815400254470414199e+00
8.142698460786197412e-01
-1.036401811676506579e+00
-1.210152642647515098e+00
-6.204489992109896157e-01
-4.876375566456052635e-01
-1.052307802201723153e+00
-1.425127028554599606e+00
-6.644523633923470340e-01
-2.505488023572858824e-01
-8.819305647917512481e-01
1.519619969507373769e+00
2.535284751955901861e+00
1.651547385688375336e+00
1.096230403448082535e+00
-8.563083576952951192e-01
3.793586790152454480e-01
1.298945351371128210e+00
-9.630252007462958286e-02
-8.162819326587855695e-02
5.294649610132817763e-02
6.915402373626895471e-01
2.224503354974259328e-01
-1.077124319269822328e+00
-5.764221438053007684e-01
-3.785246526336653594e-01
-3.074560766315955207e-01
-4.181155351577880430e-01
5.823109303564557582e-01
6.322269761113339381e-01
-1.055531573546949708e+00
-1.391441034897149320e+00
-1.192918118541771433e+00
7.638364633837152473e-01
-2.413104644731068893e-01
-1.227028461233215850e+00
-1.471594473473950559e-01
1.997462693902708475e-01
-7.316882892832834995e-02
-1.162721782578622465e+00
1.191933844645745477e+00
1.246926432846556798e+00
-2.735252613203845717e-01
-6.533856208639556851e-01
-8.619599951320541242e-01
4.929813800522780953e-01
1.993763345258354969e+00
1.504701933673598058e+00
-1.019756695949147085e+00
-3.573343369982625584e-01
4.526333663649335648e-01
7.627323454080501275e-01
-2.438826631170417092e-01
-1.057875209378521753e+00
1.161136229667029562e+00
-6.520249752561176892e-01
-1.412883259550699488e+00
1.352300161768462239e+00
1.057809876089975454e+00
-5.360234749364105600e-01
-1.005239340369841194e+00
-9.250798449665119660e-01
-1.673428166060672018e-01
8.079550524080423290e-01
2.074190777425116927e+00
2.117956625849963359e+00
1.777111934306115915e-01
-1.165289798805966726e+00
-8.514269783855596962e-01
1.061993193895877763e+00
4.264655246042657333e-01
-1.262471006967670117e+00
-2.267304260351720724e-01
-5.178236663232779202e-01
-1.515720859871908743e+00
-3.323478872561044239e-01
2.559986542373047791e-01
-5.794817124847793099e-01
-1.079547543009069965e+00
-1.529309363967623181e+00
4.184759135613011494e-01
9.293400647497228606e-01
-4.473800431846360892e-01
2.274312804348949113e-01
1.284950802683483273e+00
1.078352813076646211e+00
-1.734328848118319000e+00
-2.376319026399166257e-01
1.806239612705285769e+00
2.121895965658562311e+00
1.563742577813529433e+00
-1.120359994226126421e+00
1.465980098709132262e+00
1.402845045058687568e+00
-9.209116496987789224e-01
-1.258536133051482153e+00
-2.056701631035392275e+00
-1.264008063328687648e+00
-9.527146985043952743e-01
-1.105012128601212229e+00
-6.922986627871113852e-01
5.270019003485811870e-01
2.845256979327922542e-01
-2.645022405124535791e-01
-4.879745034454490149e-01
2.955808661042952368e-02
-1.023169197546012654e+00
-1.135595218466878276e+00
3.865306060718217473e+00
2.324292950663403357e+00
6.953488344694953582e-01
1.616001895069921757e+00
-1.873828791517808234e+00
-2.630621554841653165e+00
-2.032414604470086594e+00
-1.714454989918281769e-01
1.050775391335654341e+00
1.356356952022530038e+00
1.749699667764839539e+00
-1.646003746100748732e-01
-1.438739661863907893e+00
-1.849982136456494342e+00
1.002978153762264402e+00
4.201237335292708153e+00
3.579879588900743315e+00
3.996031651543746066e-01
-2.322192229148245524e+00
-1.128110350504293757e+00
7.630001188380961530e-01
1.311804208722853859e+00
1.161044515574926050e-01
-1.602558058072821812e+00
-1.401405088485726091e+00
-9.097677820116900627e-01
-1.122296578718243731e+00
-1.003836164054430213e+00
-9.272362154579623095e-01
-8.254827594620753883e-01
1.378031679651220420e-01
1.315723399867094301e+00
7.459274351488657251e-01
-1.147609821919569617e+00
-7.203475725424879350e-01
-3.753947555517598844e-01
-2.673272904057891752e-01
1.362828572018110584e+00
6.260270358573041261e-01
-8.548527494185407249e-01
-9.635544531338111618e-01
-3.316003321687837485e-02
1.696526553582012042e-01
-7.079876974768004594e-01
5.103337967968848421e-01
1.250421671730028272e+00
1.406050117702686064e+00
1.300339798770889121e+00
-5.504462571256397707e-01
-4.920527483655526835e-01
-4.766851592264415016e-01
-2.842911811343397654e-01
8.307106841437833511e-01
2.257849376703432720e-01
5.102555931882397644e-01
4.250663936475572724e-01
1.866824772809791977e-01
2.717655440812618561e-01
-6.030527833963474915e-01
-1.294038998267388885e-01
3.445547781452220626e-01
2.140617790648295660e-02
-2.601589105813163494e-01
-6.837413876051228190e-01
-3.533148872718728795e-01
-2.724914983952314573e-01
-6.050084912686690686e-01
3.230570138083077580e-02
-8.892719404734905631e-03
1.423979657166779544e-01
6.011588513035431847e-01
-6.512323123497637534e-02
-1.517932956662743083e-02
-3.016725275770477666e-01
-1.954055779290003458e-01
1.473984094099047293e-01
-3.040516891396515264e-01
-3.978655685362122302e-02
-1.497119311414560894e-01
2.727358156351418206e-01
5.930027380625393363e-01
2.005372458227023535e-01
8.688674419941988525e-02
-2.113119917811900894e-01
9.118769460186462728e-02
6.121421891298495233e-01
5.174698754748513485e-01
1.171880499739744730e-01
1.690399065801798661e-01
-7.543480987183268094e-02
-3.421668562172187067e-01
-1.076079538955154458e-01
5.711575414023391944e-02
-5.265145378744308380e-02
-4.445520819385858635e-01
-1.838406262670838620e-01
-1.767188753493280085e-01
-3.632827585111529367e-01
-5.644284603758067398e-01
-2.389991187636719694e-01
1.488331767807230532e-01
-4.790357792122677538e-01
-4.900142478483746622e-01
-3.295938224216494739e-01
-4.498979770748796070e-01
-7.095425104922677972e-01
1.549181381965655802e-02
2.819921647410171817e-01
2.390319400825134111e-01
8.033893078615271799e-01
2.199127747318557757e-01
-5.814693122363634448e-02
-3.331878561487204293e-01
1.747315367407821785e-01
4.957224811540693610e-01
8.576093017982360234e-01
1.594465317643512625e+00
8.271724900827657212e-01
6.449674188142107134e-02
-6.747509019955248988e-01
-1.192201839067140723e-01
4.036254968706903812e-01
5.143756049515678663e-01
3.595454001420122503e-01
-7.022456660463287648e-01
-2.991582122792712517e-01
4.434962419928890620e-01
6.500037403957323878e-01
5.946882618241905449e-02
-6.687761068425353006e-01
-5.729563967734119245e-01
-2.950476968777406284e-01
-1.504474975631481248e-01
-3.207365714716939875e-01
-3.221666764493031909e-01
-3.023206125237186681e-01
-2.533060164975932116e-01
-2.262232782266886955e-01
-1.670153215612015241e-01
9.190701700984849065e-02
-5.531482316156177692e-02
-2.056080631912256540e-01
-1.429380946917528650e-01
-1.251595929710474231e-01
-1.222521088230796582e-01
-6.925760236737901754e-02
6.299554829522213684e-03
-1.327375435706449058e-01
5.248313576857044360e-02
1.377038381717342608e-01
1.210983421642052582e-01
6.604862456208299148e-02
-6.070519507688323935e-02
3.519972730277668993e-01
6.616087222371849763e-02
-7.326037623129610932e-03
6.819832093913347215e-04
-4.876370117201012100e-02
8.004221617237297082e-01
2.861159824409797992e-01
-1.530904376345548767e-01
4.099033219381684745e-01
1.397787342815849931e-01
-1.647174913865904755e-01
-2.244578862269618613e-01
-1.711604685650520707e-01
-1.051531886373281710e-01
-4.311336060136566894e-02
3.174265578269555022e-01
2.047440134923398380e-01
-1.214629594850695354e-01
-2.669096000018958414e-02
1.303560290532902455e-01
-6.964639262618288473e-02
-2.264925988935281576e-01
-9.479267556919662718e-02
-1.424689563254420699e-01
-9.421093703313489220e-02
-9.289363157524654913e-02
1.298277780194883602e-01
1.172404818033968149e-01
-1.543738926782485532e-01
-6.020759971024230300e-02
-5.153991306557070828e-02
1.939250132180784236e-01
1.740499186654590191e-01
-1.660048503795957531e-01
-1.588217514308219447e-01
8.697865467977591858e-02
-4.704591805441438179e-02
-1.974985105809395625e-01
-1.177915357331721091e-01
9.282931322195460411e-02
4.451819430862569149e-01
2.517261205188482953e-01
5.265560643731865414e-02
-1.593105223108160495e-01
-2.002647589434986830e-01
-1.120267153971681168e-01
-1.356546899885300028e-01
5.090396508025861466e-02
3.668347544287006712e-02
-5.856162611072870949e-02
-9.346428912164772562e-02
-2.510486268347303374e-02
-5.905161800078324863e-02
-1.668333201238346442e-03
-4.138003265062602243e-02
-1.334609451542612124e-01
1.475733101184147633e-01
2.108691113955001861e-01
9.051894596828205519e-02
4.175245134306906913e-02
-1.160052421811294532e-02
-1.347414486742661288e-01
-8.641800001728855429e-02
4.688094319214777816e-02
5.304308211750223545e-02
9.996047760752843625e-03
-3.613708356781188125e-03
8.933110837374516611e-02
6.929961562024634925e-02
3.921536533315776729e-02
4.212459192667062507e-02
3.648040147927364418e-02
6.590931639317477997e-02
7.189459976479639636e-02
2.661463041066695900e-02
-9.239277564213788096e-02
-5.604428263846272101e-02
-1.788189006362500555e-02
-1.002282091371548556e-01
-1.631760341456000435e-02
-8.420513792650456686e-03
-3.949460872301013142e-02
-2.610935039168759200e-02
-6.557198096008721999e-02
8.861169611036785743e-03
1.254797514589983676e-03
-1.388736396150281119e-02
-5.452007091841047648e-02
3.696757703680783602e-02
1.548880021917596606e-01
-1.629715507637212457e-02
4.705934570200596967e-02
7.844619345169170921e-02
-3.661800942149197324e-02
-2.627137714929652160e-02
-4.224226501439790754e-02
-8.288286224280122516e-02
-4.543922827106584156e-02
8.697928068337294760e-03
-4.634109545801071151e-02
-1.352333015898415230e-02
7.332923142558711582e-02
6.902933641446078183e-02
-5.504876805896018882e-03
-6.014249903884444359e-02
-4.217720723744046440e-02
6.871305528340469759e-02
-2.156166105793787952e-02
-1.116282369701948329e-01
-6.344268959357127202e-02
-1.335301688871019243e-01
8.730177008458340354e-03
-3.667561763616904169e-02
-8.609765994769047470e-02
1.627399293568302929e-01
2.625685174412639156e-01
4.457565366648055111e-02
-6.536388254243893914e-03
2.304875116206113184e-01
4.254081696863845630e-02
-1.258595581413266828e-01
-1.208098166111735566e-01
6.686169351437064312e-02
2.551254193475078758e-01
5.962824940251804789e-02
-1.398322034001240055e-01
-5.131399875429073359e-02
3.725501596134692811e-03
-1.393399225184041579e-01
4.866570213642382875e-02
-6.287765259290861719e-02
-1.099569357919299994e-01
9.415017738220179955e-02
-5.433318833417120908e-02
-6.772363435091433015e-02
-8.383883693865140652e-02
-4.312944114214700003e-02
-3.918213577121712476e-02
4.580674237304816626e-02
1.097501128192736597e-01
4.583837273147917807e-02
1.177496714365678793e-01
2.324285739990935087e-02
3.239284872235736329e-02
1.068310690644060611e-02
-6.623066517002393350e-02
-5.115608966384679185e-02
-6.958454119768958668e-02
-9.348531738819682024e-02
-8.474774388191266827e-02
5.876410410032129050e-02
5.883604371332412653e-02
9.859296780511941916e-02
6.436102560505707615e-02
-6.480147232282151837e-02
-4.262761226292192257e-02
-8.561203039558713812e-02
-1.660785881740775918e-02
5.286073133471981544e-02
5.099274231434293425e-02
2.488425838388344524e-02
5.114141241603599453e-02
4.381962595569632857e-02
-5.279065666702140169e-02
-6.161477275774382423e-02
-7.949257971656974175e-02
-4.115454327785121255e-03
4.638077330497003548e-02
2.884073570099459846e-02
3.906935011724565338e-02
1.398567946776743121e-01
1.129396676605514127e-01
-8.088369292534905441e-02
-8.472075883314583722e-02
-6.903355706054886687e-02
1.657507795106651083e-02
2.137517889994110243e-02
-8.416550556378823988e-02
-1.231400187605957014e-02
2.497046827904505009e-02
3.504364021330544365e-02
6.113585911736420242e-03
-7.096172282815360610e-02
-6.859649089629710206e-02
4.952453910470812348e-03
1.214285040414576355e-01
1.356236081113905978e-01
8.752223775770047107e-03
-7.094058720907087112e-02
-2.782086512640669085e-02
-3.543585833692924209e-02
-5.831269477744184526e-02
-8.350924591943031938e-02
-4.068339938362230263e-02
1.178619199004370954e-01
8.766817586377889659e-02
-5.271481335500875082e-03
-7.956655044674396104e-02
-5.930675386014026829e-02
7.876037045581503471e-02
5.014992356912544025e-02
-4.805483302688106501e-03
-2.903521129285289125e-03
-2.854720436748550694e-02
-6.989945073685350369e-03
-5.455668192730892679e-02
-8.290249747315212026e-02
6.562542988480828121e-02
1.209703389917328176e-01
4.444874084416476634e-02
-9.515174040826476776e-02
-9.369146518189491735e-02
-7.225569434372253186e-02
-7.655414712027809598e-02
1.038139176269970848e-01
1.480377797786870397e-01
1.153857179467996652e-01
4.770162779060674318e-02
-4.562953265958538673e-02
-4.682090787147630967e-02
-1.009945979602174387e-01
-5.570684539253493300e-02
2.257643916076567392e-01
1.253823503344622670e-01
-8.400285470434110113e-02
-5.075845745679886251e-02
-6.779637755780733299e-02
7.992271593185713841e-02
-8.878629139366533973e-02
-7.082764148041056917e-02
1.386644796649762201e-02
-8.112835217330599535e-02
7.927650793665896867e-02
-8.331264142363402347e-02
1.125428601875668594e-02
6.306085560752147656e-02
1.684091381974390372e-02
4.928198443268907297e-02
-8.117478900520387619e-02
6.940989367003796984e-02
-5.540103193562306155e-02
-8.310423183502871347e-02
1.078805811114368074e-01
8.057681104059030708e-02
1.061525077293327124e-01
4.524851346662453477e-02
-5.607708402431238470e-02
-1.114139225204413830e-01
-1.115478990001414483e-01
-4.322813560725204812e-02
-3.063429034808556189e-02
-1.041776856701879111e-01
-1.249785949013866859e-01
-1.113140919567324610e-01
2.213494753980544544e-02
2.666108742866343806e-01
2.205630242125055096e-01
1.003046011879027144e-01
7.064763802844160889e-03
-3.433219230771702296e-02
8.758307768322544373e-03
-7.810699551920741168e-02
4.359046190124923892e-02
4.272525635971509417e-02
-7.511594725534503914e-02
-6.771698443663209943e-02
-1.592542923508181996e-01
-9.466392001963296401e-03
3.091652361189658332e-02
2.211665884784178027e-02
-7.300187861504377207e-02
-6.517234661161722120e-02
3.278611734799356525e-01
1.471255636561911162e-01
-7.014170079089575294e-02
-1.000083896001660727e-01
2.502814121383335061e-02
1.445351279238417108e-01
-3.393233797991333789e-02
5.275447500786316357e-02
-7.466191709062224013e-02
-8.570024357855859920e-02
3.177371096789710636e-02
-5.422572270184951304e-02
4.573616443796269665e-03
-3.797817888054071805e-02
-1.048078928509652841e-01
-1.941213422437509245e-02
-9.064470541561747696e-02
-1.622721785326080440e-02
2.963144636186056391e-01
8.227074620716851028e-02
-1.012645120282676392e-01
-4.660012650395422423e-02
-2.707437549448002412e-02
-3.011270176832525625e-02
-9.761212868762417227e-02
-4.308318400455257713e-03
-6.435534388153610341e-02
-3.537817468697015966e-02
7.245472308444653176e-02
5.526792775278869391e-02
1.006517951474380224e-01
1.071695444177533235e-02
-4.399265523860498156e-02
-4.830760303043048903e-04
2.990606992521571347e-02
4.497517935313369297e-02
-4.615514776679404546e-02
-3.658373498651591726e-03
1.158298193032502865e-01
4.330401236415904603e-02
-6.560457269567107619e-02
-4.589253843314473891e-02
3.500843487325139280e-02
-7.266725301824814194e-03
-7.352553703327836809e-02
7.577079961742071851e-04
6.269918070056960946e-02
2.585498115407669148e-02
3.855045960282692252e-02
1.039122718206198035e-03
-6.487778736362899423e-02
-6.251147929332298570e-02
1.418425098972350348e-03
1.118938919579661184e-01
-4.646250855762021348e-05
-9.167506182648905988e-02
-8.102079129868591800e-02
-8.503493539135059676e-02
-4.720197997874226586e-02
7.495671500816737665e-02
1.339653040154212271e-01
3.036159838649089837e-02
1.008046921855238337e-01
-2.728350837238987386e-02
-5.480348817081599072e-02
9.264515749440216386e-02
-2.945544531197240995e-02
1.833153688263140790e-02
-2.499313299190664833e-02
-1.284272364282956491e-01
-2.107629027961871460e-02
3.498369649749578231e-02
-5.514000406124902609e-03
-6.156369828663732502e-02
-7.888043532217468845e-02
-8.053304195550607669e-02
-1.000557398186689845e-01
1.240487694886256015e-02
3.764130814880863735e-02
-7.192274453304961512e-02
1.315844232138845271e-01
1.428873213029124845e-01
-2.186883203700299427e-01
-7.663561114287012477e-02
1.741951333581485684e-01
4.718601179112069666e-02
2.776358026604773821e-01
2.559329943704024002e-01
-1.610341875183964322e-01
5.765660679688132395e-02
2.247898041894832444e-01
-5.175229999553947191e-02
-3.751934043918067618e-02
1.439625890906327810e-03
-1.199967301785249685e-01
-1.315532588901732053e-02
-5.050983286554053264e-03
-1.387968348498276883e-01
-9.589071330531162562e-02
-3.137898451049073861e-02
-8.699415238495784852e-02
-7.720257686453427248e-02
-6.040283613979353927e-02
-6.453301562548086068e-02
3.935924852499006477e-02
1.905036026007567163e-02
-5.026158840844840298e-02
-3.955680020174181383e-03
4.900745467906466452e-02
1.405908965647008624e-01
2.265795022568084516e-01
4.609411376322974929e-02
-5.885026070594037012e-02
1.853238075137840501e-02
-4.065538945328506237e-02
-2.592353000504695956e-02
-5.910168806068388792e-02
-8.191912721622403304e-02
-5.372106564636222603e-02
-7.189914242913050813e-02
-3.279574459719131890e-02
7.756597289634653558e-03
1.329540838058583252e-01
6.667879525134516594e-02
-1.161577965463156739e-02
3.818952802051413242e-02
-2.785590909351469413e-02
-9.022543578320205149e-02
-3.536134968836136816e-02
2.395550315944285358e-01
2.342070926832024447e-01
4.298296938829578029e-02
-4.166127754306136327e-02
-1.005413234003860179e-01
-8.372546940364650192e-02
-5.368187093232439089e-02
4.325178340979275032e-02
-9.426046120023785779e-02
-1.284912896864945364e-01
-1.148838665339486365e-01
-4.674449608314159427e-02
1.317723165201346580e-01
-8.534340900969812627e-02
5.239668639428018970e-02
1.368831879178347977e-01
-3.227916204741999862e-02
2.901471699940243176e-02
-1.461246125252926853e-01
-1.522978941623064353e-01
1.410389901636883436e-01
2.220446527636345535e-01
-1.827123828187932064e-02
-1.140652420684447194e-01
-1.110586920552261297e-01
-7.779575824379433846e-02
2.517050797280102614e-01
1.367866905861541416e-01
-7.631170257058920992e-02
5.157549116054590405e-02
-7.503214844651921733e-02
2.124998928038472623e-02
2.029614359656719547e-01
9.075906087144239298e-02
-8.131300616679451587e-02
-1.276103619315162863e-01
-1.361700198613732121e-02
-1.011141728116444205e-01
3.020661385662139903e-02
9.721309288178935082e-02
-1.336168592323684623e-01
-1.457950925317944013e-01
-6.075222634896805529e-02
-8.605899784560052529e-03
-1.203178943638909953e-01
-1.253095759509810225e-01
8.232200211849437232e-02
3.707810518342647965e-01
2.415286020387801269e-01
-5.114480823239025975e-02
1.546776612467264111e-02
-4.037042265703170291e-02
-1.088363934254035770e-01
-3.857419328394721958e-02
1.381387005951375813e-01
4.426866250480857717e-02
-9.723359596674532868e-02
-1.596996221901128554e-02
-7.758356191322179907e-02
-3.706692240525776005e-02
-2.248552454376380808e-02
-3.003867107738337691e-02
1.006225083448458735e-02
3.311704730508815975e-02
2.147321893234933887e-02
-5.184686192120431525e-02
-7.081745991808569007e-02
1.228926148607066213e-02
1.918393842302229535e-01
1.073143233916131756e-01
-2.669657584066955497e-02
-4.777354592152213697e-04
6.014506154068628013e-02
6.181739309409448047e-02
-8.300397226614721069e-02
-1.079702644294722180e-01
-8.243821397245360005e-02
1.470065643709407913e-02
1.328423373356575898e-01
6.850680861143185890e-03
-3.424559657770996635e-02
1.121760333777687031e-02
-1.476030019823919015e-01
-1.400321722548519277e-01
-1.751150375935019848e-02
2.959292795520176989e-02
-7.569749146073150026e-02
-1.326306218608950815e-01
-2.992916285169937990e-02
-8.464260971027738611e-03
2.686090861544657149e-02
-8.877522245932079059e-02
2.342044079850628610e-02
1.185361748352015410e-01
2.607746592284791443e-01
1.712465083370842689e-01
-2.069359405410449715e-01
-1.900620339657322078e-01
-2.468876415773689215e-01
1.547124823812125183e-01
4.424615270819562962e-01
3.373682186322944920e-01
3.909385812603992372e-02
-1.465052460909048726e-01
-4.556795960044034144e-02
-8.347562780047246278e-02
1.039014234556765032e-01
5.065669794305331652e-02
-3.463501473397403302e-02
-4.945652473746146860e-02
-1.702318079814574975e-02
-1.265954730166669040e-01
-1.120193958088251951e-01
1.276719760592334441e-01
1.791154131104795433e-01
1.745790883750587552e-01
-7.668292759630747357e-02
-9.078089396445834791e-02
-1.289885260484893159e-01
-1.656825255039877376e-01
-3.277595379226776878e-02
-5.926721174073645848e-02
-1.320454159792345261e-01
1.849398190897680316e-02
1.881862585626713491e-01
8.327191231107738956e-02
-1.498636029622682150e-02
-7.782375388385281978e-02
-1.101131692732325029e-01
-8.072095560856355767e-02
9.644890333506260516e-03
-9.818507194954083361e-02
-4.468091542778053482e-02
-5.555606429406444863e-02
7.763087764636744659e-07
3.693067570565315982e-01
2.238623785256378951e-01
-9.917597292253721442e-03
-9.889617442604053954e-02
-4.036682772647885026e-02
1.022752514231460436e-01
1.305604583215079773e-01
1.755056991633821561e-02
-1.643175386772645630e-01
-1.701267227215196853e-01
-1.202237139656230636e-01
-1.642404299811345558e-01
-5.372141921379675056e-02
1.980441075766919967e-01
-2.115170000196999606e-02
-7.372866188888249628e-02
3.390885837946567283e-01
2.473229995250939006e-01
-1.028480296525749182e-01
-1.096476376803859620e-01
-1.062384551311548464e-01
-1.213485817299978925e-01
-9.213182157064467304e-02
3.390878308079831038e-02
2.468454742786193035e-01
-1.986640082401498753e-02
-2.459057457485858689e-01
-1.025225894825139150e-01
7.919400310551673317e-02
-4.691797838344797383e-02
-2.538053817174338866e-01
9.087557659513431640e-02
3.977446838172316035e-01
4.621948337277833607e-01
1.150726172032483646e-01
-1.565488906875402153e-01
-2.364487169385744714e-01
-1.292000288138250574e-01
6.775664198734258903e-02
-2.774406665760704715e-01
1.519010710656933660e-01
1.276055164360266891e-01
-4.486873747098043402e-02
6.766292757254878110e-01
2.658933859835570512e-01
-1.724212525184984357e-01
8.907181980091632978e-02
-2.496934604326605037e-02
-1.476053864823866357e-01
5.224592961030848082e-02
-1.890681506429385261e-01
-1.877409119002006466e-01
-7.969660470531708674e-02
-2.186634765216679821e-01
-1.974330017401567661e-01
-4.673726497411985759e-01
-2.094453288170632088e-01
-2.104595998777469834e-01
-1.118804444573806844e-01
-8.525863029222940925e-02
-1.320951154683902007e-01
6.393070077036117072e-01
1.918778332849518375e-01
-2.329458153314174496e-01
1.736406194966447492e-01
1.653689919988569068e-01
-3.532266976395359581e-01
-2.874787313926233101e-01
8.539757281363115349e-02
1.462285996920347220e-01
5.894203005829768971e-01
6.492515598803018095e-01
6.100439678459154136e-01
-2.524540824732640631e-02
-5.066910893410992989e-01
-1.555522174361480547e-01
-6.927374654641213492e-02
-2.046880032025463758e-02
4.298102689179567060e-02
1.486464651786705560e-01
7.960058060450173056e-02
-1.112743637949399067e-01
-3.327343061192130635e-01
-1.795306757642321227e-01
2.966382231869692521e-01
5.040986631616133362e-01
1.408301741642245530e-01
-2.892652327370527354e-01
-1.531298795368570276e-01
-1.076651934142877215e-01
-1.424101732182682656e-01
-1.389892474643564246e-02
-2.062443311158459469e-01
-2.028624816090111582e-01
2.825564323459220928e-01
4.262188405798112423e-01
3.744334395028123263e-03
-2.342241036782000685e-01
1.825965370032702206e-01
-2.393265617886051744e-01
-3.351926571706475011e-01
9.054555925814987416e-02
-1.763226784964838922e-01
7.461172881899968967e-02
-2.898015251752473764e-01
-3.734725450767130694e-01
-1.016869567533634777e-02
-3.484182442283986214e-01
-2.104799404611403246e-01
3.008265858609772136e-01
3.114226521021508653e-01
8.869083771743070665e-02
-1.591265986398802956e-01
-2.129755260489172297e-01
1.325892178097126117e-01
3.234782084402384461e-01
1.113076159157222467e+00
7.072808820446163658e-01
-4.215934461471506078e-01
-4.248303418611558691e-01
-1.367026482873851256e-01
5.498202873871269603e-01
2.461663761700267905e-01
-2.102322289575456193e-01
-1.315568501258955469e-01
-1.786270619387615721e-01
-1.935627608756928242e-01
-9.561934829377115308e-02
-6.623308469047953229e-02
-3.636889311670403746e-01
-3.450936194015939984e-01
-2.940433878787567790e-01
1.249174543249749469e-01
5.616503859510069141e-01
5.241953906198563162e-01
4.179017459060136996e-01
7.827235544480415363e-02
-2.325258709035435412e-02
1.486409299363861958e-01
1.201449819515403028e-02
-1.065818786765897891e-01
1.661508569268631275e-01
-2.220470801277177331e-01
-4.757168932571388398e-01
-3.187027707590167069e-01
-5.225484670436837398e-01
-2.191127385716370446e-01
-1.653597445303828239e-01
1.826054894108524174e-01
3.819129057940427452e-01
2.266013226722710661e-01
8.279856856734446602e-02
-4.877654147267354023e-01
-4.339826156555262049e-01
-5.524612486292647118e-01
5.120179547419930616e-02
3.266449418414145711e-01
3.618005626384550588e-01
2.654549435136911439e-01
-4.692622572847673368e-01
6.356450955193743146e-02
1.499532685193840365e-01
9.049150060764385439e-03
2.221282684844513855e-01
6.296060393164670810e-01
4.219064784370988308e-01
6.064933552242757209e-01
3.645503338416540284e-01
-1.500370456981007239e-01
5.255690003597359716e-01
-4.282934365080561800e-01
-4.282248859356003190e-01
-1.266522177373175795e-01
-7.493497995347153662e-01
-4.865709232596062139e-01
2.992168197884477743e-01
7.395891993484101645e-01
-1.317340291256960394e-01
-6.818676822319866826e-01
-9.486619205611587780e-02
3.063438896662924460e-01
-1.538314069146785312e-01
-7.041229764093845933e-01
-3.484235215382529560e-01
5.902107557250551029e-01
1.524554231803077475e-01
-5.641571361729075251e-01
-4.606207906560153553e-01
2.123807953887282829e-02
3.714301565321260212e-01
6.259272788880592131e-01
8.967851546811400620e-01
1.822049072614667364e-01
-1.920687499272447085e-01
-4.463015678767445760e-01
1.186849893508631348e-01
5.481368981480775338e-01
-1.679912988089906356e-01
-3.189461238807100862e-02
-4.430509028734949672e-01
-5.074625151441862769e-01
6.504747028443598200e-01
4.579449758592496478e-01
-2.967335702520487173e-01
-2.142847127376803773e-01
1.403862182267841818e-01
1.790601520225809096e-01
-6.914373971028667798e-01
4.856104172099780236e-02
4.392621145323343246e-01
-2.840090173397883944e-01
3.169851895693638344e-01
2.455455752352868615e-01
1.118750147204088385e-01
-6.008129997836473279e-01
-1.670866024767072022e-01
2.438193720942971598e-01
-7.231555262043113386e-01
6.893608666825021269e-02
-1.411503491705101698e-02
-7.761143693546431743e-01
-5.435346249045365230e-01
5.045365282198652768e-01
8.331638826564904399e-01
-1.849406371340338306e-01
-4.938625892537837347e-02
-2.179462032555639639e-01
-4.714322470060309800e-01
1.149224755924883157e+00
9.159181424630592483e-01
-4.678006839610415746e-01
1.221202680353084546e-01
3.123345034365610506e-01
-3.485089866757320465e-01
-3.608869789849162846e-01
-5.218615552985785000e-02
-1.621588201810021945e-01
1.170484116754375997e-01
3.948547808442069429e-01
-1.050305365154872300e-02
-2.397668450009821095e-02
7.173200968364088492e-01
1.082284975702739876e-01
-6.198544630638591624e-01
-8.114656354327251520e-02
-5.143664789782308455e-01
1.123272296955024840e+00
1.702532677210330414e+00
-3.591750178402247640e-01
-2.232406527531282103e-01
-2.923116552097855814e-01
-2.140226363429367229e-01
-3.954725384786904330e-02
-2.270680045100659794e-01
-2.539494971831603443e-01
-1.022838481945642419e+00
-9.025642279593111272e-01
-1.514575991544120370e-01
2.854911715732919575e-01
3.088335002853803690e-02
-7.402945777768964453e-01
-1.276021286784005948e+00
-8.560722605134557517e-01
-4.411519859606752303e-01
-1.219573114843819917e-01
8.986527439169820219e-01
1.428196772431767680e+00
1.025646983749848307e+00
5.819745674803062929e-01
-2.395760112337085856e-01
-1.258190615735111262e+00
9.620606333770143070e-02
1.580093476963377874e+00
1.524117741047288588e+00
1.882937025960826904e-01
-2.540817926439747909e-01
4.340892870535579262e-01
4.954915433969319105e-01
2.894896966989341514e-01
-4.919626598858695687e-01
9.074768276440270398e-01
1.697107335413022833e-01
-1.109161028617076550e+00
-8.267024025919004204e-01
-6.595979432294242217e-01
4.202307178990001280e-01
-1.119610625991426023e+00
-1.259109743315775187e+00
-3.614479019782471103e-01
4.571015597132632724e-01
1.710187944391800663e+00
1.814612361995366019e+00
4.971192852868904222e-01
-1.314609294215127733e+00
-9.779847469218941880e-01
-9.093283074218305728e-01
-6.393812677602541683e-01
-5.286492000782366807e-01
-4.028798630809933279e-01
2.224486905506643519e-01
2.578484439181239485e-01
-4.649175277748933133e-01
-1.031347685593756003e+00
5.563118842064763703e-01
4.720259006941394109e-01
1.045132625758303166e-02
8.569634571399776801e-01
7.040290129962523125e-01
-1.738916362473591493e-01
-1.370366153311349144e+00
-1.324744231208031087e+00
1.340182186007497611e+00
3.785468279775648703e+00
2.443490984475504835e+00
1.623814095348774522e-02
-1.166994985303216437e+00
-3.706871412282085609e-01
-4.047838924848162767e-02
-9.803679186354951058e-01
-9.849049139308992951e-01
-1.008160778595961649e+00
-9.247870172089840690e-02
5.909562418563237829e-01
3.393693356224558588e-01
1.254678918171588720e+00
1.011528097168705731e+00
-1.107498772176864321e+00
-1.116420255222464908e+00
-6.620953831862300687e-01
2.854732905077096983e-01
6.394056754322805514e-01
-1.344630770823819876e+00
-1.007199673195673384e+00
-1.227453699714876834e+00
-9.102262598477081079e-01
1.122100754910246634e+00
4.190999212815610941e-01
-6.462084114250956635e-01
-8.690457653976827457e-01
-4.799346253354461189e-01
9.854089685278377697e-01
2.301518134016494521e+00
1.968818715235443939e+00
1.184339090764841673e+00
4.765909863036688066e-02
-1.575930717048837693e+00
-1.240357495306459334e+00
-1.499405570621731520e+00
-1.003120697270289075e+00
1.811124065834255337e+00
2.311680517458754469e+00
1.953416474181420615e+00
1.605009707278700626e+00
-5.633818274568480611e-02
-1.394645564535129223e+00
-8.692035130805670917e-01
-2.840136356216839131e-01
3.534575901632349693e-01
1.211868768209901637e+00
-1.225018369678955721e-01
-1.030884564709278806e+00
-7.674585247106855412e-01
-9.822155560383830641e-01
-1.625074845036517335e+00
-1.234928288037487221e+00
-5.767176576234703811e-01
1.819731675492124445e-01
4.813195894403682340e-01
-1.382203814849860102e+00
-1.574285381353230484e+00
-1.663476597049914574e+00
-1.443304558600609910e+00
2.311315482664522136e+00
3.892955065776287249e+00
4.973016194011162794e-01
-1.309083583987584287e+00
2.417781205410218792e-02
1.295655128826790570e+00
1.289178508998473749e+00
2.614560375178325846e-01
1.361066727736697235e-01
3.176588925206836334e-01
2.598470715186791402e+00
2.224879945727941344e+00
-7.890532584740774791e-01
-1.646872336277227511e-02
-4.452791655938822535e-01
-1.376664095162640322e+00
-9.686931872627043694e-01
-6.072006619543539596e-01
6.060327296223431137e-01
1.051800455903350251e+00
-2.528380575865408209e-01
-8.347903149764427377e-01
-7.045769536969830327e-01
-8.546895405337657792e-01
-4.306695244059116079e-01
-7.802762183743749969e-01
-8.312130760118962014e-01
-1.037121835391556113e+00
-3.911202077261843324e-01
1.303324317139163302e+00
1.532398189036589642e+00
5.974774103613624820e-01
-9.696237828867433350e-01
-6.910679694242427562e-02
5.712328839672604630e-01
-2.489732345043474404e-01
-2.472629503752312441e-01
9.208389266504117543e-02
2.588998407220280962e-01
-8.309896739382240938e-01
-6.318639825594263293e-01
-5.315278974711827864e-01
-9.398145602058247672e-01
-2.098860746213363493e-01
-1.502177877361944858e-01
6.747437240749646348e-01
1.496821567086133786e+00
4.481753937051552450e-01
-3.399197394505322212e-01
-7.558278002040939025e-01
7.008045764670219890e-01
3.708786331662627056e+00
1.820126576296900556e+00
-1.117982157701525425e+00
-2.296591720422114236e-02
4.005134448883475029e-01
-1.149116062810767724e-01
-4.169750139237770603e-01
-9.794899553970389805e-01
-5.934655715424379530e-01
-1.020603547259046895e-01
2.693166009312172871e-02
2.128024811512907455e-02
1.655990392137930700e-01
2.990894579998054081e-01
-8.350502011648217593e-01
-3.207657706840864043e-01
1.144662744063290383e+00
-5.668158324014047622e-01
-9.316208425803078619e-01
-1.031888399126597022e-01
-9.278341312213712611e-01
-6.306677806674623188e-01
-1.317386143045596314e-01
-2.677497548315420084e-01
-9.981845110712608271e-01
-2.294768446884704050e-02
-5.612900930287345602e-02
-7.295119764495298087e-01
1.192419982733139205e+00
1.006580631920640290e+00
6.045222928960301001e-01
4.795525389550496509e-02
-2.542456245364277390e-01
-4.139145023930268508e-02
8.689438739284116586e-01
1.521804156723778334e+00
-7.286160909927976714e-01
-9.546755824685804193e-01
-7.264509612656456783e-01
-9.763756238466789750e-01
3.074125176520344782e-01
1.440537834860440958e+00
4.775975148322764152e-01
3.707658510164789645e-01
1.690616270040619318e+00
1.462045887681070688e+00
2.943507956186139918e-01
-5.913794279022674960e-01
-2.599461773710414203e-01
-8.577498520769419876e-01
-7.218451991166521253e-01
-8.627675082844639132e-01
-6.700092490316656990e-01
-5.571315237348073435e-01
-7.190542418572430927e-01
5.237910153187624873e-01
-6.983547470253784750e-01
2.404353861167969064e-01
1.555538731717801770e+00
1.906927224928905318e+00
8.828085913126204609e-01
-1.190386734025841386e+00
-1.542442521662159560e-01
-9.140237938266929096e-02
-3.113627761712220443e-01
-1.180968832392349954e+00
-2.082865725481947428e-01
8.394096773278575396e-01
-3.451889346244651491e-01
-4.626091660736147970e-01
-1.365499138947833702e+00
-1.321773520719945694e+00
-1.596990467068849284e+00
-1.504258868873854516e+00
8.446444673595077113e-02
6.812884582681957291e-01
7.566251047873623348e-01
5.051245563608137701e-01
1.054115679101865322e+00
1.720179052302897027e+00
1.332365353518456530e-01
-7.722014761738621447e-01
-1.247439039091796875e+00
7.550378601899333519e-01
4.636209971596670698e+00
1.805757496090651948e+00
1.322916966412374773e+00
1.235734438474691554e+00
-1.836083340043422218e+00
-4.905874535442111828e-01
-9.032286454706270895e-01
-8.485809622653438522e-01
-1.473274398314352807e+00
-1.999504550413235826e+00
-4.527466665844304128e-01
-1.569366003517740360e+00
-5.402674868613592807e-01
2.115548773452926579e+00
2.284422743582096960e+00
-9.020104437671250253e-02
-9.595813338498814238e-01
4.320821076819866269e-01
1.378305265946209168e+00
1.340083171743145840e+00
-2.864362048219164514e-01
-1.501198749778630326e+00
-1.552389037567371677e+00
-1.137752055142965957e-01
-2.115319884024856600e-01
-9.707020580433000090e-01
-4.417702704363312693e-01
-6.887543246156062615e-01
-8.216312202594138192e-01
-6.887573669554651890e-01
3.423406457491366406e-01
-5.167018201140334277e-01
6.323513045269111288e-01
2.269994145470922930e+00
7.305923291487201876e-01
6.725531106694723205e-01
2.364941628432881693e-01
6.525872915461456980e-01
-8.596584916757138428e-02
-1.136759312524042720e+00
-4.812716860115784367e-02
2.899960514712623394e-01
2.404374272627249898e-01
1.387841491487646239e+00
1.120594965610939520e+00
-5.986632568385058528e-01
-2.073554729932205465e-01
1.523809351949745872e-01
3.132568998626440449e-01
-6.444349267905533640e-01
-1.145419521479166258e+00
-8.358559945739822972e-01
-3.409269043161109458e-01
2.067120037645932551e-01
-5.775397260075968431e-01
1.709259460006535419e-02
9.972550746457164994e-01
6.813082707973689978e-01
-6.430406133846727768e-02
8.792469825520563553e-01
1.641456242127544929e+00
1.164116119750150391e+00
2.591401831909429521e-01
-9.729074046990719982e-01
-1.226701964449866233e+00
-1.374010729337867609e+00
-1.513163546053069686e+00
-1.555185594824022743e+00
-1.603465638632499690e+00
-1.239255366926340862e+00
-5.547784318702608797e-01
-4.185605427731098338e-02
1.808593056422929113e-01
2.385666541524389395e-02
-1.806246453614518188e+00
-1.967607251914827549e+00
1.577078493503513368e+00
1.794613857989602712e+00
1.800277311320940932e+00
7.321207963480635961e-01
-1.585668912222797378e+00
3.806679608844333096e+00
6.058148067075872945e+00
3.401760588808683039e+00
1.369056624709769743e+00
-1.271555014792602689e+00
-1.545580249363618819e+00
-1.155156142983648548e+00
-9.510706306623686324e-01
-1.184362101137768075e+00
-1.314959165336766045e+00
-8.150757974967658415e-01
-5.779614784900595215e-01
-3.403270575590748304e-01
-5.609929250377343468e-02
1.523184518460263259e-02
-1.113408861042912701e-01
-1.979606149592343933e-01
-3.941982405370064724e-01
-2.893815042867138865e-01
-1.103566018456142439e-01
-1.766719837501090629e-02
-2.643854902918980621e-01
-1.006516200959549856e+00
-8.416421622850344120e-01
-2.792575135105332951e-01
4.049565947587506765e-01
1.278738739526962043e+00
-3.667959378939522619e-02
-8.733112553971623671e-01
-2.859992991616157054e-01
-4.973760040325290732e-01
4.312085338026298009e-01
1.049635796476107608e+00
8.919005554683852033e-01
6.002027258734063953e-01
-7.451180116285621713e-02
-5.422487379995351020e-01
-1.265839188844564145e-02
1.315134446941968127e+00
3.329912894249082433e-01
-4.775667611452231731e-01
-2.921236364333723579e-01
-4.617872620237569725e-01
-4.774943193537871666e-01
-4.231368854376376110e-01
4.929122867438488487e-01
6.692419229788415524e-02
-5.705661274336502053e-01
-5.723366932179264621e-01
-1.985775708728671762e-01
7.743793121403597102e-01
1.140575497656224346e+00
6.734253101156573162e-01
-4.466486562141491201e-01
-1.198609329505821441e-01
3.350275005681878082e-01
4.717762898819831130e-01
8.066196482897932674e-01
8.580938605449478507e-02
-2.096171368751709174e-01
-4.543972124034935112e-01
-5.280241766262521175e-01
1.188213092344744815e-01
-3.390136849570407063e-01
-5.101252930839875743e-01
-3.561993053610897908e-01
-3.800181840458722871e-01
2.688232093186168625e-01
-1.924914744172318559e-01
-6.150862789322239510e-03
2.191300899597990459e-01
-2.306033404756006322e-01
7.288997469946480179e-02
-1.081612150069811706e-01
1.372309610541802838e-01
1.818393678741410946e-01
2.256989808952982179e-01
2.352652914039697341e-01
-1.012893207656491990e-01
-6.438016229144379043e-02
-1.467027568860977960e-01
-1.218611603370219065e-02
-1.987582734425152597e-01
-8.845241759452572572e-02
9.532500680712656382e-02
3.707350240156739862e-03
1.823576397188002018e-01
-1.473299396106090425e-02
-1.298918711558305628e-01
-9.690578497399104929e-02
-8.782691673261064369e-02
5.291431169132883305e-02
7.731132734936185802e-02
-5.369429553467737481e-02
-7.547412173422592130e-02
1.536389498713162105e-01
2.175827105273103190e-01
1.817381909536756601e-01
2.118463641507287720e-01
5.764095253963132798e-02
-1.258046976415912177e-02
-7.482819039517719928e-02
-6.974298883934534898e-02
5.065571257317782322e-02
-6.709369165690316772e-02
-7.015838304978852524e-02
3.590082619650679374e-02
3.025964912370309595e-02
2.029376939994561799e-02
-3.052524233795693778e-02
-8.548456552148887833e-02
-4.890427930286417313e-02
-2.941363428084636453e-02
1.849197715992544067e-02
6.797355568487502275e-02
3.563387637823055981e-02
6.752198791837049630e-02
7.599194983348644961e-02
6.315998846225573393e-02
-1.445892165001855766e-03
-4.329266458392623529e-02
-1.285511579208931110e-02
-4.364507273993369768e-02
-1.319137806789061895e-01
-2.578169302957694642e-01
-2.587266456031081518e-01
-2.951280285258391783e-02
3.655919744698539475e-02
-2.696824789791551491e-01
-9.712455266972318257e-02
-1.420225507446552793e-02
-2.997682843276382458e-01
1.538137450396334094e-01
1.873634759074203626e-01
5.448073347677823142e-02
3.304609330113391641e-01
1.767110462604801757e-01
1.179647117388515909e-01
-9.508818587646732101e-02
-2.234800492205269717e-01
3.123064922810724064e-02
2.951323514291878114e-01
2.772589860332653755e-01
1.262321701406031726e-01
2.976975674116879578e-01
-1.869784649890857825e-02
-1.652847609149085961e-01
1.116208147727914685e-01
3.155007666393613852e-02
9.274036795285839352e-02
9.556037798556529794e-03
-3.048597617821259265e-01
-2.175131424327272633e-01
2.971120943296579400e-02
-3.110487257288516161e-02
1.598769166991906993e-02
-6.997907263562655467e-03
-2.282103015215982966e-01
-1.106553561580583406e-01
-3.810218360991764197e-02
-9.759036403948487259e-02
-1.620764635835436063e-01
1.152275268295443883e-01
3.018258562814785662e-01
-8.130755095744171546e-02
3.465632159078713831e-02
1.762833167544829160e-02
-1.118353403575992333e-01
1.015724618399826557e-01
-4.913304675725296833e-02
-1.127173818927591498e-01
-8.601219969920589903e-02
1.028147098003557719e-01
9.822486723694147381e-02
-7.046440521269620172e-02
9.565530222991151799e-02
9.352092404391606356e-03
-2.015089953923257515e-02
6.942148508255513439e-02
-4.801359881204140742e-03
-4.737413557058797742e-03
8.724633005090533244e-02
2.848565947977010904e-02
-6.991863364623593369e-02
-3.574169988762309486e-02
-6.129757621589951994e-02
4.403676857629091473e-03
-1.872229627142019473e-02
-4.352772651217601263e-02
5.562686610345125848e-02
-3.295669971680638063e-03
-4.389158375462995365e-02
-7.119249388122048106e-02
8.439437716063216688e-03
5.306880700606551871e-02
-6.576653119837304329e-02
-4.883038521016076078e-02
3.827053582177401825e-02
9.121292829202597152e-02
8.426220121804611773e-02
6.053819853852958344e-02
3.778028554280149498e-02
2.564747982874057697e-02
-4.074135648542476923e-02
-7.345913857632667410e-02
8.511547859473399952e-03
5.253719930878186783e-02
9.487739855913274178e-02
6.157425264881129234e-02
-1.641865880915478054e-02
-2.456034215265425619e-02
4.767910622829537454e-02
7.883653705988023785e-02
8.368336199514074536e-02
3.327845424455030954e-02
-8.193434971306798320e-02
-5.837984578741347436e-03
-5.967725775284513784e-03
-9.072600442228148654e-02
-6.835898631811695991e-02
-1.790138379661962778e-02
6.730126050375581648e-03
-2.643186275885257841e-03
-2.817944869795061674e-02
-1.203863901334135400e-01
-1.387492985652456490e-01
-8.909797038034804328e-02
4.113175534010318768e-03
-5.060064902186918456e-02
-9.194538220119065353e-02
1.918006062592593208e-01
8.803455780279495491e-04
-1.798382837595254302e-01
-1.592739762076803012e-01
-2.562456461403796459e-01
1.378270758605494306e-01
-1.757660662502458226e-01
-1.168812046152623435e-01
3.492665512004567985e-01
9.676370546194559830e-02
6.588704817633918298e-02
-2.057658652349247108e-01
3.382970730968923312e-01
5.828589011533007458e-01
8.282994385300232465e-02
4.146694050922647423e-02
1.732747915216355239e-02
4.941784244089489353e-02
-1.010094408642512737e-01
1.752346799840721336e-01
1.939704166970929178e-01
1.026771220571452148e-01
-5.407007982040272498e-02
-1.957031488493310711e-01
6.567769224647998505e-02
-1.939702067701225552e-01
-1.462255012358413819e-01
-1.092090653124384303e-01
-1.417323018998457584e-01
-5.227652848115597189e-02
-1.055457716543829333e-01
-3.338737285859671305e-02
-6.675560718072422184e-02
-2.955096542312310448e-04
-9.497025359891582419e-02
-3.575506005472668669e-02
1.068552370081178593e-02
-2.753782035421161595e-02
2.202934740798453972e-01
4.555887020730453596e-02
-8.879996893963493232e-02
-3.237229133220630856e-02
-1.621495837743949786e-02
5.001498358468679795e-02
-1.838979322576370784e-02
-3.124812478417103578e-02
-1.820682880687818708e-02
-2.228910586392483101e-02
-2.673143155755112327e-02
-4.114719103191610827e-02
-4.786743214192672180e-02
-3.318287148809317966e-02
4.985161458101947801e-02
-3.216421386851624209e-02
-5.417907146961806891e-02
2.205675099259999106e-01
1.812566925044262756e-01
1.061399138576344381e-01
1.320484322775529185e-01
-3.027960903312436336e-02
-2.322708309484514122e-03
9.751664850163946352e-02
6.985582180613791881e-02
-4.731742649055427352e-02
-3.416690201123746135e-02
4.828491408286775255e-02
4.083712242526840036e-02
1.424158185126094336e-02
-3.906417925926101292e-02
-8.567465577047889136e-02
-6.481250889608869414e-02
-4.097623184369399846e-02
-4.739934914695963231e-02
1.255382632152251404e-02
7.808732194276662986e-02
1.355887194507789106e-02
-1.154472066435473232e-01
-2.928373240605779831e-02
-3.503711696102704970e-02
5.730707751929361993e-02
1.546263349359033867e-01
-4.435817198793712279e-03
-9.333256176654455838e-02
-1.575921108930281589e-01
2.367859422497324909e-02
-9.986937167990005138e-02
-1.294768790891271948e-01
-1.674893822050938300e-02
-1.170047193000650909e-01
-4.078099846626317970e-02
-1.503709416302629887e-01
-2.218309874887741673e-01
-2.571812659107990950e-01
-2.335300175213333440e-01
2.732212490825106088e-02
4.096161539837344101e-01
1.723697842003376612e-01
2.523545675310638892e-01
1.474671808728534317e-01
-8.652728730510694799e-02
9.880579622232203985e-01
3.594039647723634712e-01
-1.344004579072795580e-01
1.412747233032896066e-02
-2.909766691851343734e-01
3.458813465140966326e-01
-1.205970568135253662e-01
-3.510506512533424495e-01
-2.509430668566749456e-01
-1.966682262947074822e-01
7.123051117063908255e-02
-2.278499949688010395e-01
6.277616853538270369e-02
6.503929485640982944e-02
1.143098656934119495e-01
2.138390342737478689e-01
-2.490573171116620410e-01
-9.456413387547371596e-02
-1.524167039257523504e-02
-6.490707793695620065e-02
1.468739469336770020e-01
3.647870424750226936e-02
-1.336819175347918609e-01
-1.501073125294484500e-01
2.963134695540427938e-02
8.106605940366654051e-02
-1.527983834986213207e-01
2.992772567776294523e-02
2.389514145561362213e-01
-1.660110827505264369e-02
-7.182448045470060660e-02
-2.507901181722629186e-02
-1.062803289354640190e-01
1.708895791439483600e-02
9.816040042655140019e-02
-7.270678406298718664e-03
-3.701846572716953332e-02
-4.050565302468988119e-03
1.745899013311722620e-02
6.465219864001767180e-02
1.075632476370299156e-01
-1.626627474624353989e-03
-6.271497476396306614e-02
7.442074927303836407e-02
-1.577286258842835326e-02
-6.335897746553173504e-02
6.557361544932874264e-02
2.469380954618201687e-02
-3.945892355652392408e-02
-7.381598154865784411e-02
4.192162910391970809e-02
8.062019885322475876e-02
2.870946668710039340e-02
3.765843839310296232e-03
2.691534443738367866e-03
3.014486081162349312e-02
-6.788703187435102260e-02
-5.955616463952190937e-02
-9.494521104787409516e-02
-3.601049322051658869e-02
-4.268509281117750798e-02
-1.591854039504981555e-01
-1.370125871734290401e-01
-1.335603196911039903e-01
1.356354213512512841e-01
3.083175471613754937e-01
2.291378647324354700e-01
1.753587136698216697e-01
1.116550082081254197e-01
3.647367152590565154e-02
6.662068823867679790e-02
-5.777192732666133063e-02
-9.479863702288574001e-02
-3.941316262294937423e-02
-1.581294793336411875e-01
-1.359674273738667172e-01
-8.191144862750707190e-02
-5.323045521110087580e-03
-2.261327367123406595e-01
-1.753966269430366209e-01
-2.570853483587607902e-01
9.130015886806966408e-03
3.465087832940411672e-01
-2.300166929264588211e-02
4.246432145823256232e-01
7.645520878659142761e-02
-2.376833542058434390e-01
-8.401533009207548530e-02
-5.459971544655101844e-02
3.434030323034394927e-01
2.596767395215881513e-01
1.273803558714456940e-01
-1.691575037940387938e-01
-1.400544320587142066e-01
5.217125706143986574e-03
2.087038192420222205e-01
-1.372207870190766399e-01
-1.988036919391387436e-01
2.811337453473583547e-01
-1.033243717987074872e-01
-2.743376319878476632e-02
-9.720823406527542843e-02
-1.611137989937017068e-01
-1.878997254933183481e-01
-3.738278293763296067e-02
1.933756683281041555e-01
-2.195121668677681159e-02
1.664772791339769742e-01
1.491913671068113845e-02
3.439209356048204824e-02
-1.127172420916863066e-02
-1.060947257311633807e-01
6.687217890544917831e-02
6.012344050433696130e-02
1.931469021190577728e-01
4.974779686165442527e-03
-7.866717446316030815e-02
-1.279737982799572515e-02
-3.448554909915138578e-02
1.202253561656204187e-02
-7.960403516182100458e-02
-2.981764047694323780e-02
1.493150452638736941e-02
-6.811601473910493254e-02
-8.246785049806518164e-02
-3.876875166284318719e-02
-1.052772836223653946e-02
-9.922916486046208517e-02
-7.697207399561512009e-02
-8.009852341952057586e-02
4.254235034490536776e-02
2.316385566986463584e-01
5.831160438919757993e-02
-4.205356651099646792e-02
-3.735868040368109377e-02
3.036138274837698811e-02
9.891316826183152444e-02
7.233420551609247295e-02
-4.935509545425141587e-02
-1.417856058854333745e-01
-1.056768169782058286e-01
-1.128981114049933537e-01
3.009581099556285846e-02
1.516564434080965307e-01
-1.523761694524309873e-01
-1.096082707008093904e-01
2.963253325218456746e-01
-1.209977609518267383e-02
8.326691821529269566e-02
1.191848564249683162e-01
2.005549147957420147e-02
3.594691530996001472e-01
-1.870005841042879091e-01
-6.120468720605617974e-02
3.083348664255601834e-01
-1.031610819502162130e-01
-2.260011539207299747e-01
4.062002956106734036e-03
7.335681628581697256e-03
-5.277252184899092202e-02
1.587016715724176574e-01
-4.473880362161718888e-02
-2.642028419779000881e-02
7.069428698509745701e-02
6.961451553952485716e-02
-1.199286808531782045e-01
-1.307138211280369222e-01
-2.256317065219974952e-02
-1.186584041708506898e-01
1.247394395131412037e-01
-1.112274067526849153e-01
4.270895514261431603e-02
-1.504555308325544183e-01
-1.780331132894498181e-01
2.544124634743213376e-01
-8.804934053588761578e-02
1.126040942116099258e-01
-1.897417915835876157e-01
-2.191500596232059950e-01
9.414757073209302496e-03
-3.425309572764902860e-02
1.519005230219145908e-01
-1.515724795242037182e-01
-2.323020944579988478e-02
-1.606783568984593291e-01
8.040786777153360876e-02
5.060491100512436446e-01
3.248045778819010909e-01
2.629445720134512832e-01
-1.567742113530415093e-01
-4.175940932871516353e-02
-6.465242561060338677e-02
-3.165351387619228518e-01
-1.217879109568610202e-01
-1.914189484260612473e-01
-7.529181540227918024e-02
1.296806636509231225e-01
6.499472143807365210e-02
3.391792858532247101e-01
3.843383384821856263e-01
-1.926603099335949532e-01
-1.383894227124897180e-01
-1.944141176429032281e-01
-2.276577048970477302e-01
2.700200426982490298e-01
1.221064460098866267e-01
5.754841299738268356e-02
2.572283273193107789e-01
6.075064785786293484e-03
-2.238027081964875098e-01
-1.131669868061882384e-01
-2.231578396364080341e-01
-1.134119850472840030e-01
2.136250613741059179e-01
-3.386201697212151696e-02
-1.338957151790978461e-01
-8.653918927503605196e-03
4.486306391343510003e-02
2.203944569075418636e-01
1.574498012295100224e-01
1.046340951547155562e-01
2.164404166087816050e-01
-1.385381963205011280e-01
-5.412869775965774288e-02
2.773621542990625799e-01
-6.182426502846909838e-02
-9.631447361843645250e-02
-7.252619650625233283e-02
-1.543564695746237891e-01
9.193058796945254019e-02
1.231405583010613952e-01
-2.420558404694302390e-01
-2.251782666191763649e-01
-1.798565048369597796e-02
-2.216673411748101286e-01
-2.620631306514962788e-01
-1.047064972945460637e-03
-4.687555405732037050e-02
-3.115562202884185061e-01
-1.418732796548485831e-01
-9.217612429269103624e-02
-1.279265637425808233e-01
-1.371828776512380443e-01
-2.203974403295223539e-01
-2.634926427825534656e-02
7.098639359856025177e-02
1.817695537575767795e-01
2.365734995309067834e-01
6.283211684952920706e-01
9.900815811634229302e-01
2.197623708046790580e-01
-3.367044183885637976e-01
3.893794043496046076e-03
5.177425060214800867e-01
8.729093903558340362e-01
3.579015307190290263e-01
-9.184307211468972776e-02
-3.313603625121362972e-01
-3.610555164941834372e-01
4.244413064553184678e-02
-1.996516082746747356e-01
-2.233323558180401180e-01
-3.150210326681588402e-01
-2.921399281493684552e-01
-2.308789030697703248e-01
-2.372985537406686052e-01
-1.217709174444180503e-01
-1.665345477566819443e-01
2.899440658178608632e-01
-7.686592219541221738e-02
-1.270617291511499658e-01
1.309097019263992245e-01
-2.170822806429467122e-01
-2.154341672711201361e-01
-1.861173862369523424e-01
-1.183904707586920096e-01
-1.469766401275608980e-01
8.671308930898402600e-03
-5.384303357741901386e-02
-2.279076471973971729e-03
2.391617978159955304e-01
-5.817468576707449102e-02
8.501790901450215210e-03
2.620477927960211950e-01
2.882756689501614344e-01
3.199368132708989010e-01
3.596201153375819248e-03
-2.433253375827997278e-01
1.901175150381718137e-01
4.625399237554003173e-01
4.493891731193191408e-01
3.440431830575650385e-01
-2.025498062039145508e-01
-1.352823021807518789e-01
-1.765570859997261099e-01
-3.150544111541960790e-01
1.057001398043434792e-01
-2.543501012229095748e-01
-2.325576143048476707e-01
1.634430253424911939e-01
-6.935289482565322461e-02
-1.770556300783547032e-01
2.670601282038345126e-01
9.647820181567831610e-02
-3.727301006410778106e-01
-2.980347397420144984e-01
-2.925194698336105459e-01
5.148126584618413215e-01
1.251155435341743782e+00
6.359965389241557521e-01
-5.655080377266911151e-01
-2.691373871687461894e-01
8.205483236943671155e-02
-1.550747102181132819e-01
3.376808337030657303e-01
-2.486059400040990797e-01
-5.996738612011154324e-01
-6.253848262738324060e-01
-7.126803833245839437e-01
-3.718142436622071667e-01
-1.692085377461600704e-01
4.374877930972879136e-01
1.201979840975633262e+00
1.972796344547587788e+00
1.207954592320569454e+00
-7.067354847074879265e-01
-1.080073481919597178e+00
-7.936830504376133355e-01
-1.210092739859998545e+00
-7.660735673285186120e-01
1.380062074932644212e-01
-2.265970004683105776e-01
3.703141926483058954e-01
5.756673777337932840e-01
-7.457715656229484402e-01
-1.386951546854888528e+00
-1.761552544503857343e+00
-1.498757357040914284e+00
-6.002535546818262846e-01
1.239542787895137277e+00
2.138230133710718128e+00
1.762969955057242855e+00
1.407528994271864120e-01
-8.230735578816764653e-01
2.017362277917976510e+00
2.663835029948781408e+00
1.322743871342149102e-01
-5.977815282668719199e-02
1.961113149949093915e+00
1.532489492158814803e+00
-2.080138782870655234e-01
-1.214139013539091483e+00
-1.376352346184605224e+00
-7.195654110700989703e-01
-1.154507187135725088e+00
-5.036683643795967225e-01
3.026557052228195932e-01
2.191194232465191183e-01
1.931645375930085007e-01
-5.207595968928158126e-02
-5.887660856975517332e-01
-7.221340423682411913e-01
1.506073231722110661e-01
-2.977460437402001947e-02
-7.171737749276344553e-01
-5.899651021476792767e-01
-7.868369508574988291e-01
-5.790609974877913846e-01
9.603642023755049051e-02
-4.578902040346254365e-01
-4.773933549097932327e-01
4.775469260634922497e-01
4.592602818298175404e-01
2.443461161920156832e-01
8.356332981125831338e-01
3.755702875213806635e-01
2.789712824423151716e-01
6.371774077500361733e-01
-4.926754275350514467e-01
-2.206101151097347723e-01
-1.871993634865379563e-01
-6.970304402178881809e-01
-2.673374322608199627e-01
3.264051846949472258e-01
4.190643151600076388e-02
-3.350239464160605918e-01
5.502764671978128685e-01
2.846101586633540403e-01
4.717636389159327592e-01
8.715942166032468741e-01
6.867130738777558197e-01
6.578769932257677588e-02
-3.199134957911495269e-01
1.503405060911865432e-01
-4.494490127239288979e-01
-3.562246270857996611e-01
-3.344310082506546933e-01
-2.587614712015123830e-02
4.093969698642833110e-01
3.120676844912502745e-01
5.680179803800315952e-01
3.960597746990950352e-01
1.022418730318430391e-01
-5.814889208226987627e-01
-3.434886267583262542e-01
-4.954986279758719081e-01
-5.509768249905618864e-01
1.324229141267369014e-01
5.893119370147766878e-01
8.210399424120156109e-01
-5.464768714257917104e-01
-6.575040469999758885e-01
-9.088674088505521720e-02
-5.099328014195561032e-01
-6.334326634295285308e-01
-6.040379520444592032e-01
6.384974926204045609e-02
7.801421267290811201e-01
-7.192940414975984575e-02
3.791106517845622970e-04
1.179205013236846122e+00
4.884396958931797039e-02
2.809116308277583851e-01
3.612468590795235857e-01
-8.186007677117523862e-01
-1.757046096046881167e-01
-5.033563395214656344e-01
-2.273503237332611115e-01
-4.659854099665587390e-01
-6.840594796782004661e-01
1.245281665945834781e+00
8.444468191975161853e-01
-2.926045447992242643e-01
1.671852616533466007e-01
3.225855956789191320e-02
-8.175032290707486826e-01
2.083391278819547443e-01
8.869618357940741715e-01
-1.207816533610714255e-01
-6.890226058694649547e-01
-1.221864759627340480e-01
3.427913310936543945e-01
-1.092552980153983722e+00
2.256723213358512170e-01
4.732896547962222034e-01
-6.629491926977210126e-01
1.676776218598820645e+00
2.608518862685951234e+00
8.057198398955361940e-01
-8.357043547044227250e-01
-4.927886155552517744e-01
-1.069046180446150629e+00
-9.478221697818105529e-01
-8.745618537801922443e-01
-5.472223772941566811e-01
7.310644197659366128e-03
-1.016660455767669280e+00
-6.308276847941357568e-02
-7.728827960750264126e-01
-1.455382633945501852e-02
1.648260538589096713e+00
8.395231580039240749e-01
4.690618062772668462e-01
-1.206136396859167847e+00
-1.424403826683604546e-01
2.473442927945606939e+00
7.044729770206379360e-01
-8.924934521658883790e-01
-6.716575589157138815e-01
-5.487869668597754602e-01
5.253238573569003478e-01
7.807805249731460950e-01
-2.097761155359555429e-01
-4.645470710397691105e-01
-5.534213870248209100e-01
-8.407301996421080448e-01
-2.573013435481785738e-01
-5.998076684344864073e-01
-1.331155808533515672e-02
1.495973784776400972e+00
8.798000387307776116e-01
3.343631168293347833e-01
-3.685839748685503237e-01
3.942689362480494841e-02
2.787394831940253059e-01
-5.136927359890229861e-01
-3.854041955951172937e-01
-7.518502902551226219e-01
-1.679179417798682961e-01
3.400983180157511887e-01
9.700434632652182865e-01
1.222425521400499537e+00
2.588125454933909442e-01
5.501900587903176820e-01
6.855786412176738676e-01
1.201991793802910935e-01
-8.596909365496421263e-01
-1.036889279397405161e+00
-9.515354012002548156e-01
-7.612641922836886899e-01
-8.073988507820433203e-01
-7.881225651951837552e-01
2.938836017463115624e-01
-3.158983490851320353e-01
-2.070969622637841290e-01
4.490300340459135731e-02
-1.434799492373683982e-01
1.530204846128383256e+00
1.791415912852736270e+00
-2.819678589690720050e-01
-7.221934768773361490e-01
-3.948353564808825267e-01
-7.308129916901255907e-01
-9.699660223678079340e-01
-9.540574859012056486e-01
5.512343434989335211e-01
-5.686350105507469443e-01
-7.963585963181092353e-01
5.785700426765127968e-03
-6.849376005139806711e-02
2.322371162339434747e+00
1.549136892445884595e+00
5.069446248869055038e-01
9.029323483967295338e-01
3.806121946499763098e-02
4.069614879418148590e-03
3.971973356537837896e-01
2.320600206331802640e-01
8.703175544796365459e-02
5.212347926635898521e-01
1.208809297428177221e+00
1.114293045083825540e+00
-7.737889084397550077e-01
-1.115459332811059578e+00
-8.124593982156183003e-01
-1.026681595891124843e+00
-7.110495562664627123e-01
-6.953131369725062960e-02
1.181236155956451483e+00
4.160484943585792683e-01
-7.496327498323944738e-01
-9.068341507534862789e-01
-8.896948008088869653e-01
-1.351473859763637542e+00
-4.203821588485783800e-01
8.280610109382080530e-01
-3.849036052341967551e-01
-2.990156164039857178e-01
-3.339497331588088813e-01
-9.075314443470352543e-01
3.064343140414396705e-02
1.298728727588456255e+00
1.144431056139571412e+00
1.097893028895522288e-01
8.281681727981726748e-01
5.401696802291967858e-02
-1.182102361811811608e+00
1.030339463973383385e+00
5.133240767928295423e-01
2.299727933725621565e-01
2.315886408812239061e+00
-3.765886245538639654e-02
-1.123082898739422131e+00
-8.797441686168332442e-01
-8.447247283844104837e-01
-4.473813669127893466e-01
-8.952209008506553101e-01
-2.798190141724995472e-01
-9.137823085165723835e-01
-4.523172147602174675e-01
1.002279638885272384e+00
1.755595571706669578e+00
6.698030704355532050e-01
-9.543431453790679475e-01
-2.836483758893963980e-01
-2.377120798328246354e-01
-4.439113729237180728e-01
-4.070381342707550809e-01
9.625423390807115176e-01
1.222122377853412711e+00
-7.995140930346846808e-01
-7.607374039857845993e-01
7.487293023504524303e-01
1.883550666187074007e+00
1.548765348550886545e+00
8.440711603883810366e-02
-7.137038311673131741e-01
-6.948254925446779584e-01
-9.159616137987632856e-01
-4.986888888516394225e-01
-8.362358044947924007e-01
-8.104364448106649021e-01
-2.576299631188019856e-01
-6.267615195439100173e-01
6.492247413506866405e-01
1.772316315559270050e+00
2.555874919013143121e+00
8.907357653325818081e-01
-9.951804720375140301e-01
-9.749832557502413621e-02
-1.228118894624322388e-01
-9.421878171858267814e-01
-8.999386181219731773e-01
-1.327308866319711012e+00
-1.179721111079402140e+00
1.973739864412450418e+00
8.617423218917588112e-01
-1.051898059985166611e+00
-1.270771036077208205e+00
-1.147147818893444082e+00
1.424884026917621060e+00
1.637821063204003114e+00
9.503440404357091920e-01
-4.014941383693309551e-01
-7.148651984718170649e-01
-1.659449691966529361e+00
-1.787114529935768914e+00
-4.448138998323765136e-01
-3.418519796439668523e-01
2.274148395556268021e+00
2.764477731458727661e+00
4.259353292316240824e-01
-1.684153284015829311e+00
-1.461584313007333158e+00
1.823278042704596646e-01
4.291925766951160126e-01
8.470531300790007379e-01
-1.692004630365533946e-01
-2.238048170158252859e+00
-1.070427402181224896e-01
1.069044932988777452e-01
-1.444615300940606639e+00
1.263337608520425981e+00
1.023748210279189053e+00
2.869572776570342931e+00
3.158165136393762396e+00
-1.236398176191313869e+00
-1.391082992844868471e+00
-1.236083966350748131e+00
-1.887131570334080743e-01
-2.836527817337305968e-01
-8.435965882017794071e-01
1.718732384562607463e+00
2.389609820225016890e+00
1.054103366656854890e+00
-2.893035258170451041e-01
-1.047193609930918257e+00
5.129365555084572370e-02
1.424554143783793858e+00
1.445891343043018140e-01
-1.313269135432439949e+00
-1.179082550917289751e+00
-8.026024784004838208e-01
-5.497164939808701911e-02
-7.286175930313618654e-01
-1.196843695082301151e+00
-8.372341354823363835e-01
-7.176256675041559063e-01
-3.151444511482499600e-01
-5.005735878033602537e-01
2.476916485502964616e-01
-1.430269834614804614e+00
-6.995979443600123249e-01
1.080373202352634898e+00
-6.753629311166093885e-01
1.743031472152879680e+00
7.906362907264395945e-01
-6.609107920733734431e-01
4.918999273251027926e-01
-1.049424715172679434e+00
-4.865839926628396928e-01
1.994672776831114991e+00
2.735766749202168668e+00
4.701895350199001289e-01
-2.781256440667826402e-01
-8.729144496921064089e-01
-1.112545342819549532e+00
1.041462995610462627e+00
1.338213827533432543e+00
4.272031506661738698e-02
3.871853478350929523e-01
6.558121991018137642e-01
-9.879468501030619354e-01
-8.596051550821901532e-01
4.436872395046445039e-01
4.464280669847969785e-03
-8.339610566263271352e-01
-8.730301627457992542e-02
7.800274043966974880e-01
2.440556399937884535e+00
1.979330272267187274e+00
-1.190423235697266602e+00
-1.586369164775187190e+00
-3.361063020155893866e-01
1.589534999498810053e-01
-3.748005717651871072e-01
-8.671530698200766718e-01
-1.304144370629296557e+00
-6.756577902398419599e-01
-1.255803160708366173e+00
-1.219967949594913170e+00
1.100051012835382203e+00
4.135207962962552664e-01
-1.159290062402957400e+00
-9.098610424221593718e-01
-7.326709448609263209e-01
-7.936321843616354066e-01
1.148355735825403734e+00
1.611908668147085111e-01
-1.119829270586957470e+00
1.909524178429610197e+00
1.508388770400759693e+00
-4.655228318780721963e-01
-5.495423431299218953e-01
-4.840745815450686607e-03
2.098492156565024302e+00
3.266169131512983714e+00
7.775639411717503169e-01
-6.902844044538599677e-01
-3.936460451008571004e-01
-1.646143897426542768e+00
-4.045264246841194788e-01
1.028028928313672541e+00
8.782808889559954313e-01
1.597713459531111324e+00
4.485341691970957112e-01
-7.574090884668676082e-01
-9.997429705821340162e-01
2.598182018548556016e-03
8.762366127301015606e-01
-8.943769753553010293e-01
-1.294103779192956161e+00
-1.407682458556416494e+00
-1.553257841209544354e+00
-8.504429590050811560e-01
-1.227266916560678656e+00
-1.532278466710668363e+00
-6.573249593220690246e-01
2.132636893175094528e+00
2.370299227667830078e+00
-1.148664936155827099e-01
-9.817292450890033884e-01
-9.811206396054634737e-01
1.335956970921546638e+00
4.012309199132593207e+00
2.969107350947218116e+00
-1.744126035792891161e-01
-1.642316387932556410e+00
-3.513288039846246269e-01
-4.012605094266527006e-01
-4.829208200224859304e-01
6.127547924618034769e-02
-1.159055924808316540e+00
-1.374262719608918548e+00
-1.280502766495871692e+00
-9.238575199815737271e-01
4.597821407647150194e-01
9.296187701768738876e-01
-3.561342777547473748e-01
-6.916541799881784636e-01
-1.908375431367674291e-01
6.062423893322000934e-01
1.458471713096807232e+00
1.304602202106118214e-01
-2.897960103315326830e-01
3.011901174740614917e-01
2.247035028541686685e+00
2.209549089199950522e+00
-6.525420389485959705e-01
-8.228449011087910492e-01
-4.378989150109000583e-01
-4.696585578196799671e-01
-7.494403626559582587e-01
-1.110088974734532385e+00
-4.537426768634481578e-01
6.364673922559409558e-01
1.041515000516688216e+00
8.273810775055381317e-01
-1.016551371065731041e-01
-1.146741115584605009e+00
-1.045162045478648105e+00
-1.613507094360065175e-01
2.942449438599242795e-02
-1.203890439987885808e+00
-1.361582143631031583e+00
-6.935149075119493300e-01
7.949061196165621013e-01
1.933869937796976135e+00
1.161096962000361055e+00
6.044720731128865321e-01
-9.439090116836087452e-01
-1.209831252306860394e+00
-5.026831874696671698e-03
1.078149121766004637e+00
1.298410692186200421e+00
-1.356046247467863175e+00
-1.118489331424633582e+00
-8.740434171273282760e-02
-9.278394434372339017e-01
2.895407296422457533e-01
2.007249319140544941e+00
2.158519910132221664e+00
5.215137402505923281e-02
-4.886926574783286847e-01
1.448302427532846215e+00
2.474171724553484886e+00
1.738331891413390506e+00
2.115138632757239678e-01
-9.927333092143770799e-01
-1.244488983462653131e+00
-1.011508987599270881e+00
-5.008361311385518544e-01
-5.548726970060947616e-01
-1.618261816370120565e+00
-1.719126961383911523e+00
-1.835917049293496417e+00
-1.414104489110593166e+00
-1.375412506891462883e+00
-8.116733859839423415e-01
6.344870094152521567e-02
-5.687108984921811494e-01
-1.194747473806226257e+00
-1.253154465484752400e+00
1.105487329682610653e+00
7.104905039732842820e-01
2.182996608156140272e+00
2.023547612079870106e+00
-1.410266433134712116e+00
3.161018568144408736e+00
4.187401546364153404e+00
2.720961374799274246e+00
1.124119139111471100e+00
-1.098455926095611934e+00
4.647780841729365342e-02
-6.629634242170661107e-01
-6.720441579746738725e-01
-4.017192168101003102e-01
-2.462839282759520798e-01
-7.926442139510125884e-01
-1.263842236801709262e+00
-9.286776587754737022e-01
-1.074704201994262753e+00
-1.732855637286996042e-01
3.377896053901362494e-01
-4.238014746521735487e-01
-8.630192017553264261e-01
1.033738903758704697e-01
-2.209163061299832531e-01
1.034518273552648138e-02
2.250556727746578223e-01
-5.819269384035399284e-01
4.759194465885376868e-01
4.902023410127018810e-01
2.927838391641838234e-01
7.284181079109443013e-01
-4.314284883967121620e-01
-4.524660431782205894e-01
5.293939033241636949e-01
1.702881689534450071e-01
3.600244069406293712e-01
1.407077665530080332e-04
-1.951729312330494348e-01
1.989979232838762213e-01
-6.026672927137646241e-01
-1.556769921174392668e-01
-5.154721736783443586e-02
-5.199854607512766069e-01
-6.621685766532783846e-03
2.291824133037088929e-01
2.670943465706827613e-01
1.901416282258197032e-01
-2.142016363687557212e-01
-5.939870779539262458e-01
-4.113700292663898250e-01
-6.560086776895207583e-01
1.562420801494256439e-01
5.545831556529419171e-01
-1.914017105075236369e-01
1.451184654930371298e+00
1.975328704572013150e+00
6.352431963553006877e-01
-3.347088008829642858e-01
-5.328836504268825713e-01
-2.384440348857375103e-01
-4.751229056131786033e-01
-2.887897768861107384e-01
-4.279885776226043798e-02
-3.692463814892272822e-01
-5.554593393782133459e-01
-2.101452436641856047e-01
9.595391679761572368e-02
1.984405654942842101e-01
6.027693847365109270e-02
2.690444339005462759e-01
-3.011265847587032973e-01
-5.878328110007197127e-01
-6.187671685201179272e-03
-5.627781859880790494e-01
-9.618698733384145605e-02
6.554730290530743630e-01
9.492161265089157363e-01
7.736964657639200382e-01
-2.602025589266397931e-01
-7.538232285617998407e-01
6.771071050902860433e-02
5.775809631007433609e-01
-1.491037564844527874e-01
-1.975745017002669690e-02
2.160343944084413548e-01
9.763118843855171647e-02
-5.866841451015791797e-01
-7.053621614170829668e-01
1.558503288955835342e-01
3.086819408634677853e-01
-2.301752241366124552e-01
-5.707969537696320206e-01
5.277244799756992677e-01
8.531033659371647371e-01
5.666348317223482978e-01
3.918903331509668853e-01
-2.318848943505228410e-01
-1.333681721119504004e-01
-2.674171692011987900e-01
-2.783299123160678512e-01
-2.249353661045745967e-01
-5.383805253957674175e-01
-2.934151283776099683e-01
9.079338280980719933e-02
1.638345851999399860e-01
-1.244823666340105356e-01
-1.169029524639072920e-01
8.570850193490073266e-02
-1.629072430364976731e-01
-2.078598679812316830e-01
-1.256617703813861231e-01
-2.647766978745109689e-01
1.490711172344518637e-02
3.695049317320689974e-01
2.273014385148308669e-02
2.508627599850732914e-01
6.300622995420621653e-01
1.661094517619628869e-02
2.112987574853836537e-01
5.457769718179696916e-01
9.663690952737993833e-02
-1.416956853052870891e-01
-2.075352189361561184e-01
-2.286742264757019027e-01
-2.169862260269408427e-01
-1.469302688601056284e-01
-1.363477016379229245e-01
-5.804565902799435628e-02
-2.213964493223554569e-02
9.288024641810252446e-02
-7.551056699246062875e-02
2.137592881626215399e-02
2.754361973265703201e-01
-1.120035361399693286e-01
3.500722362795383735e-01
3.344327829458684787e-01
-1.847363238184585865e-01
-7.461196622234927966e-02
-8.213395472339599102e-02
-6.094062481542397020e-02
-1.218320979655174996e-01
-6.799028268623313886e-02
-1.001274323379314907e-01
-1.034877013137337903e-01
-3.338377661965485910e-02
2.170207899319406830e-02
-6.246734244352207532e-02
-3.347066716679614889e-02
1.419282089345416387e-01
-5.494656653362842147e-02
-3.816396845837216611e-02
-4.747495828047768734e-02
-7.215515111130946235e-02
-2.045186667784416185e-02
-5.545162442390807328e-02
-3.787283937514514948e-02
1.099853495228707984e-02
1.368440546582901374e-01
1.011902893123695912e-01
7.446789698505884569e-02
1.132051456408764006e-01
7.537972828881031595e-02
-1.511964666097807136e-02
-4.175490416008887512e-02
5.302203783022027550e-03
2.095718934069216652e-02
1.172816162729000550e-02
3.854320821933301944e-02
6.783906978056661319e-02
5.236022387105764009e-03
-6.653240214508575334e-02
-7.266568582737747972e-02
-2.171135273133368779e-02
-1.110647343670962892e-02
1.145306748252307959e-02
1.005986120379024143e-02
-1.213603847904186350e-02
7.171485248740651353e-03
2.525779136256975019e-02
5.301956387422886163e-02
6.805246706890599045e-03
-2.572152452553449348e-02
-3.204582262907347545e-02
-2.912992374312298877e-02
-3.444739098754442258e-02
-5.639827973890745860e-02
3.244500337484756969e-02
-5.950201862058100699e-03
-8.743979175391120018e-02
-5.499698593437229305e-02
-8.164233418349094162e-02
-8.814069535654335888e-03
4.672805729338031649e-02
8.876422716111906364e-02
1.780430344959578193e-01
7.535248232919353195e-02
-1.054285499395579695e-01
-9.527322131754213663e-02
6.292856138034408353e-02
-4.581360248018079978e-02
-1.426152787300617453e-01
4.526859379650439996e-02
-4.579818708693469964e-02
-9.865928454872616160e-02
1.278396514346382684e-01
1.448937465415239823e-01
1.831361183868910614e-01
1.181503249658159282e-01
-8.083690242426090633e-02
-7.579784002645810481e-02
-2.868432736798381955e-02
-2.248673688679478366e-02
-6.425283568834566639e-02
-3.096748556861463053e-04
-2.182047686830779903e-02
-8.030349501240290067e-02
2.714746023882428153e-02
5.800421083803380257e-02
-1.631057920991398069e-02
-6.469909179060365223e-02
5.728097659756823529e-03
-1.235003103683296119e-02
-1.930296686868685288e-02
-8.941145545103463405e-03
1.909221189940964875e-02
1.458303359005882760e-01
2.033872949330406063e-02
-5.315272631835609579e-02
7.055384604388557912e-02
8.042290799018178560e-02
2.476895115563298305e-02
-3.122520956182262691e-02
-7.654138358826978461e-02
-3.044455232147177254e-02
3.824104447441864507e-02
2.988209748163521071e-02
-8.959121139048713961e-03
-2.925011639963729163e-02
-3.040567070134961997e-02
-6.330892494135545445e-02
9.512702895765907246e-03
1.383068182947568003e-02
2.074603693591300577e-02
6.844834428981041996e-02
-4.990701779216303452e-02
-7.021130239417745778e-02
-4.150986455130660502e-02
3.376904755512810316e-03
2.890723134029959951e-02
1.454778819799237150e-02
-4.780041649741063881e-02
-8.629967342504496486e-02
-4.989715655284943790e-02
-2.404099526951339327e-02
-3.022908633790675342e-02
2.382937917959299101e-02
9.137786125779950863e-02
7.795420807257621987e-02
6.423837933245279963e-02
-1.249521082938790939e-01
-2.378983048732651734e-02
-7.912403892623749713e-02
-5.991049928776380484e-02
7.766392157967921817e-02
-9.541047633533440708e-02
2.625304433898063561e-01
1.258555126595433116e-01
-6.532150342723469505e-02
-1.264808835693514710e-01
-7.416934086175122620e-02
3.099331837911676324e-01
-9.666598828255212883e-03
-5.076684516731166941e-02
5.407110175758582382e-02
-4.082416638489148875e-03
4.208607210014737865e-02
1.020123158893238569e-01
6.890633000412607623e-02
-9.720285029573938473e-02
1.770437679132465247e-02
6.767106065600746179e-02
-7.693449562427578936e-02
-7.020785539370333339e-02
5.594710822883415535e-02
-4.339505896854020661e-02
-3.887792735309650305e-02
-2.266378830531701541e-02
-8.728273913403225559e-02
-6.623471201135339853e-03
-8.069202570705161226e-02
3.899715422497073564e-03
6.560958862983312656e-02
-2.726546451580420458e-02
-1.723200546755916662e-02
-3.461163495254396261e-02
-1.596141635619726176e-02
-2.513134177436034122e-02
-5.459219647876929760e-02
-3.620127892819838267e-02
-4.514775194195726898e-02
-1.084007196651791682e-01
-9.299947136956772387e-02
1.448789033593055331e-01
1.547494101956005397e-01
-6.236521031599935594e-02
-7.731980134712282404e-02
-5.683749063294991910e-02
3.977807074238818089e-03
-6.377018139013010400e-02
-6.150359820036545994e-02
1.790446179211331312e-01
1.781459143953094959e-01
7.648047739214239304e-02
5.185873000147819822e-02
2.079782518349810871e-01
1.318654549798785602e-01
-1.363920134653401617e-01
8.278782511577319203e-02
1.464456974901732211e-01
-7.676742862820902513e-02
-2.933753788349233171e-02
3.503883646482004038e-02
-6.026046513649699343e-02
-1.058016345892447488e-02
3.594256511032972723e-02
-5.712646267982220138e-02
-3.529346126148521362e-02
-9.084911948395807402e-02
-1.216973036018109827e-01
-7.909203401471577577e-02
-1.035999326761592176e-01
-7.383894002865018513e-02
-6.200337685874190985e-03
4.664101487144738101e-02
-1.715218732537993063e-03
-8.363382250102660564e-02
-1.133436283227604729e-01
-3.689504352365789719e-02
1.040210059549110250e-01
8.501459335745059631e-02
3.191991823383391602e-02
1.362336035938618017e-01
2.111415553895147970e-02
-1.158831919390040099e-01
-9.194054587325693750e-02
-1.113497058286104513e-01
3.438125715815765204e-02
1.416996473608986840e-01
2.318820498462198787e-01
3.603962580592746240e-02
-8.088970040732110234e-02
2.037773797477819837e-01
4.064174803863970786e-02
-7.601174703643030772e-02
4.788069052001851789e-02
2.952911953002908610e-02
-8.573785416786854074e-02
-8.912686502780872710e-02
1.984096153060880413e-02
-3.136168340208895372e-02
-2.801214763402479213e-02
-5.425475515407413019e-02
-4.318603737898203329e-03
4.507450942070180544e-02
3.723873767231825754e-02
1.216670064845138954e-01
-5.532115688285902527e-02
-9.760817386606249202e-02
4.040920794171759534e-02
-4.912221843345106198e-02
-6.689179022558039422e-02
-3.764419256722431606e-02
-7.586611070899876297e-02
-7.469296008482435856e-02
-8.308260751229305796e-03
4.105178082793449479e-02
-3.188501415250553916e-02
-1.480771107575466414e-02
-8.310068012688982819e-02
-6.383052067316077882e-02
1.844862954742030325e-01
1.031764957408045913e-01
-4.201003218129585604e-02
-2.316363962686771027e-02
1.984336968348485164e-01
1.722679824907769053e-01
-9.682067952256745436e-02
6.550478983835759939e-02
4.340109924705180117e-02
-6.225251595685900308e-02
2.184298051013242037e-02
9.747777079679763659e-03
-2.938583959468214421e-02
-5.694749060068274998e-02
1.105678671953247254e-02
1.442869370581294219e-04
-1.215708533368913512e-03
-7.155616549033549587e-03
-2.537722725766795862e-02
-1.080757908453668439e-02
-5.577297469487158682e-02
4.404587581427196817e-04
2.118598784122554743e-02
-5.610501668941772491e-02
-1.055921523476609364e-01
-1.165658825954812017e-01
-6.109923347279076766e-02
1.233230449644240334e-03
-1.482635583693441700e-02
5.152206112453991405e-02
1.103046713350407382e-01
4.042465546065762694e-02
-5.871706036771778825e-02
-9.022662086702523676e-02
4.454204785087982621e-02
1.098139209400153249e-01
1.135700294645322905e-01
1.536874684373581434e-01
3.831756009909081245e-02
-1.061805640497761188e-01
-1.000946226019521629e-01
-4.290915642149978337e-02
3.536909456448449063e-02
3.600583903710746769e-02
9.004216091189695681e-02
6.925155548276473727e-02
2.081947134376791603e-02
1.154679954484834764e-01
-5.057305381544627276e-02
3.164798919854799886e-04
1.009152059959479986e-01
-1.034975293164025478e-01
-1.030206537749377704e-01
-7.722730023284636591e-02
-1.192411839205255036e-01
-6.276099644928087584e-02
-1.262894448232786959e-01
-8.429724050379337752e-02
1.081736933494439334e-01
3.974743110688309933e-02
-2.082587099961664967e-02
-5.297974094226588770e-02
5.411421646547427688e-02
1.132089327943071461e-01
6.379528640704680564e-02
6.874796759192342011e-02
-9.980922814229511997e-02
-2.641703959978351085e-02
-5.991844464376495233e-02
-1.130027449424964026e-01
-8.851450552255026721e-03
-1.107273718788581024e-02
1.501483269607859217e-01
9.365261537396571412e-02
3.079146014037844117e-02
7.092467733358637227e-02
9.145058064008268484e-02
1.195102057931768241e-01
-7.590330390491509260e-02
-7.956087381274692949e-02
-1.217464725588751628e-01
-1.274805047107351597e-01
2.061814354090749091e-02
-8.460728969731326488e-02
3.091451788207520007e-02
1.705379075142348100e-01
1.136138286616543286e-01
4.221288651425843252e-02
-1.136587694292731099e-01
-8.508435644804662745e-02
1.121953475163589842e-01
4.764289069289114054e-02
-1.200955414964988976e-01
-1.272402107482102362e-01
-8.878004031886364833e-02
5.876299667011566918e-02
4.453732661680834953e-02
-1.653704795802643512e-02
-8.325538630393800044e-03
-2.586875266452174846e-02
2.576305736885833170e-02
-1.758861483937911724e-02
-5.465421106349680619e-03
2.471758344872540189e-02
1.578749365008979832e-01
1.200825806943109919e-01
-9.156478680466809128e-02
5.827615545839771871e-02
1.806546405920836720e-02
-6.615462747658187870e-02
5.508751904766034241e-02
-4.658743993751299911e-02
-1.864167541752169421e-02
1.033078508278080232e-01
-1.879240003017831895e-02
-7.716625327139974011e-02
-3.530537994196441404e-02
-9.493584425217421741e-02
-9.649176979348578209e-02
-5.207827665067568668e-02
-9.678649155476701238e-02
-7.369814794311466133e-02
-8.053438121339347167e-02
2.705986600332070668e-02
2.073213067595770787e-01
1.374919782644865585e-01
7.666558593693079127e-02
1.096234407051437793e-02
1.218522861636106569e-02
-3.842461562680363901e-02
-4.808198185148613440e-02
-5.182828666811023499e-03
-8.204284406260309304e-02
3.869724888323169965e-02
6.717337410001286702e-02
1.388044164174394579e-01
1.859097994577744439e-01
5.219577079213734427e-02
-2.817350569832136054e-02
-1.515600094948517385e-02
2.075153533867876710e-02
-5.268652416954220513e-02
-1.067063783549682815e-02
-6.556668832426881810e-02
-2.210118112922662692e-02
1.942720613644206840e-02
-1.258955570892667519e-01
-2.337271605576170252e-02
9.713014322828783520e-03
-2.420777709943896377e-02
-6.711161248722195827e-02
-8.402524166514466208e-02
-7.076429569370294714e-02
-6.636763043319530986e-02
-2.362931182289197338e-02
-7.296912071457374582e-02
-6.044780225633885479e-02
-1.642128082691904079e-01
-5.107067121553003630e-02
1.103937334560298744e-01
2.006694915883275310e-02
1.348935626361771611e-01
3.050094247307348905e-01
2.309926166984285212e-01
2.774222293266366546e-02
1.838104500992596702e-01
-3.591018747646888831e-02
-1.706872845428507590e-01
1.721514873916790422e-01
-5.663896625445086208e-03
-6.927453883535450441e-02
-1.016401956393220563e-01
-8.895279997461423560e-02
-2.584289406456320021e-02
-1.216034320577245031e-01
-2.377703854672201522e-02
-6.194317186904904626e-02
8.067657969537278539e-02
2.637965598612380114e-01
6.852295279908898751e-02
-1.145735364572600806e-01
-1.104799824496065785e-01
-5.712110323945097240e-02
-3.086993339365124919e-02
6.039190449503366309e-02
-3.304780235105324315e-02
-1.150357971941682600e-01
-1.991511915328307569e-03
6.826029330721555821e-02
1.123136576849628476e-01
1.851897910015889298e-02
-3.416652483009673114e-03
5.353345510806799268e-02
4.959200698273870389e-02
-4.854940128237221486e-02
-9.149523110086874023e-02
5.036712222107603970e-02
-4.372580440734120943e-02
-1.073978716739911049e-01
-4.421297743296024804e-03
6.045775945915616428e-03
-3.636626361477620847e-03
-2.086773168200708323e-02
-6.884854645084399240e-03
2.863525698147810841e-02
1.755930608926549452e-02
-8.277542900320584984e-02
-8.462767916140502555e-02
-1.912152722900288537e-04
7.301292966014963359e-02
1.701806587803394999e-02
-3.287850398327010759e-02
1.157538098780278440e-01
1.203951870619113518e-01
1.041750221897424639e-01
3.309891344540731584e-04
-5.611338904992666660e-02
8.520966548663147511e-02
3.231092900478677032e-02
2.390030820544100654e-02
-4.980129292079920472e-02
-1.025021307101594004e-01
-3.340211431548459342e-03
-1.053412492136693995e-01
-8.206019708799469625e-02
2.033925908740974453e-02
-9.356979983216034968e-02
-5.165225870253575824e-02
5.589751546167135571e-02
3.756538161573903106e-02
6.785762040516792049e-02
-5.837652210582452983e-02
2.303663174341535197e-02
1.858955917343333430e-01
-2.497003560376893569e-02
3.793477085901719031e-02
1.003913812294246130e-02
-1.096442247614638765e-01
1.238392801874090288e-01
4.323262985977979755e-02
-1.056135829368660406e-01
-5.537107481980757528e-02
-9.592900174982366135e-02
4.461357166956136239e-02
8.992748030270145132e-02
-1.221303870205353581e-01
1.616222263057289638e-02
4.788561079605958143e-02
-3.755614044401277274e-02
6.614016736304861865e-02
-2.679519372603764854e-02
-8.058990278556038556e-02
-5.208153200528431621e-03
3.772510800854285418e-02
-4.578762547446751929e-02
1.558048047742061626e-01
1.905506667960295553e-01
-9.841181869676229876e-02
-5.880141092844182876e-02
-1.124693674903526064e-01
-8.868784108014433898e-02
4.114331405802149066e-02
4.699543131548881980e-02
5.027358701520326378e-02
7.400454069406725566e-02
-1.182786451271581815e-02
-7.430161925330470984e-02
-4.959917127497950190e-02
-1.056047251118630848e-01
-7.395285981695121080e-02
-3.399615722038908799e-02
5.971957734427256470e-02
6.043628422832285352e-03
-7.258368030627387890e-02
1.125343030130230432e-02
1.187997267044016703e-01
4.651057027319992210e-02
-1.980490459321698066e-02
2.417906349971409297e-01
1.350045913812545351e-01
-4.247771707468145364e-02
-8.458396564798456585e-02
-8.153246415952888904e-02
1.093027170469407366e-01
4.871419344852195160e-02
3.601383428781410045e-02
2.194284237305222512e-02
-8.295555743699074835e-02
-5.830607487540804407e-02
-9.011246439307502021e-02
-4.664344450544235382e-02
8.228979321405052727e-03
-3.160142747765998239e-02
-9.041634667901612965e-02
-2.970762965757803992e-02
7.140919353817236359e-02
-6.201942378418326407e-03
-2.121063193592026205e-02
-6.345204785752900367e-03
1.681964999942022615e-03
-3.093474769016051062e-02
1.866028717056077146e-02
4.270561860137622734e-02
-9.905679954559166653e-03
2.974857070434678771e-02
-8.439068565304497227e-02
1.654599502355733054e-03
4.659633788228369905e-02
8.820055995147224603e-02
1.571392975298317174e-01
-7.435299020442659446e-02
-3.705439339580120228e-02
3.609412950272805620e-02
-1.331452313852913572e-01
-1.531424846235327486e-01
3.468768442655729978e-02
7.006389741975055374e-02
-1.775817588672182201e-01
1.912230110612860717e-02
3.626646726002092924e-01
-4.303263882165130061e-02
-2.665449669000501121e-02
1.841828996776832539e-01
2.824007340013916234e-02
4.268734454800304778e-03
-1.338550119045365527e-01
-1.390275642768802611e-02
4.657977901574822388e-02
1.576733050580030882e-01
5.953218644557126127e-02
-2.007772259745112531e-01
-1.039211861932111541e-01
-1.367063589136958135e-01
-8.000539163840784951e-02
-5.749872725835930565e-02
-3.940821567043098494e-02
2.328090289576535687e-02
2.083740091712846521e-01
1.029785135927888673e-01
-1.987599591485307293e-01
-2.401722312519861957e-02
-9.830132372270806995e-02
-1.934355450236412421e-01
-1.969682390927252752e-03
7.587502582483278413e-02
1.531892926138851418e-01
1.778824385701859856e-01
-6.870309572187680014e-02
-1.996152143130826284e-01
-3.858497071712509163e-02
-1.206055435567420370e-01
-1.272433725490112466e-01
8.460622649766927350e-02
1.336954659037404292e-01
4.321569362576014317e-01
5.104748819432537443e-01
1.243502237979201147e-01
-1.162683230979816434e-01
-1.622429506538736188e-01
2.380058348605139373e-02
-9.440228638378657389e-02
-7.334496879875045117e-02
1.277339762746000917e-01
-6.202679711397915407e-02
8.782982725855217887e-03
5.851454167280974172e-02
-6.265666606403205718e-02
-6.182081442726745923e-02
-8.274576692060810201e-02
-1.201169234166716004e-01
-7.769836489641225585e-03
1.370206315813018300e-02
4.532349270635346872e-02
7.122569489060046055e-02
6.397529439428538411e-02
2.892414226888775364e-01
3.603020658686868771e-02
-2.187807896758106330e-01
-1.790875323190879442e-01
5.922907608902285015e-02
1.647066187387370151e-01
-2.862067780422983265e-01
-1.827917224287902431e-01
-1.942043344527388249e-01
-3.310355338763255606e-01
-2.280047698188204242e-01
-3.609988888707486021e-01
-3.834671030188891577e-02
-1.257819353703116538e-01
-2.828800563148589076e-01
6.003103305907236953e-02
-2.340170354890565574e-01
-2.805299744359646824e-02
6.176438007772993011e-01
4.984853236835534163e-01
3.537191266459616124e-01
-6.137357178268285085e-02
-3.735257540323566050e-01
6.114077552748042876e-02
3.677204194969616591e-01
7.640016819519133140e-01
1.258559835763144674e+00
6.162875524580075925e-01
-3.634853351113882525e-01
-4.388763758071407839e-01
-4.437540918153958236e-01
-2.616456983087386279e-01
-3.302996910932082253e-01
-4.247309084091455134e-01
-1.252679267886481485e-01
-3.220404531617390709e-01
-6.249288344919244620e-02
1.789446431628586853e-01
1.695049327973759123e-01
1.706455049829364023e-01
1.988150656564363905e-01
4.386198066436231002e-01
2.297212190761048489e-01
3.370464955005906260e-01
1.810687003461402267e-01
-1.107335009756522104e-01
8.576801617378179698e-02
-1.979710197059557086e-01
-2.480438755336025758e-01
-1.322124850350384628e-01
-1.954184659414878178e-01
-1.111699877437768019e-01
5.473678877739382442e-02
1.578185656058698205e-01
-2.680199480829268954e-01
-4.023374512072801501e-01
-1.184634232625461497e-01
-1.559764358741286827e-01
-2.598031273308533118e-01
-4.441806073890349760e-01
-4.368180669892158807e-01
-4.944393488606640408e-01
-4.884497831815632352e-01
-1.307924646088676757e-01
6.419381876255630948e-02
-2.962097999783684932e-01
-7.058695562375474353e-01
2.211870359403292352e-01
4.319737178222896046e-01
1.254745460659669742e-01
2.685492123131583142e-02
6.189149304822516573e-02
1.604686330331686506e+00
1.513528389069877189e+00
-1.619556194056975817e-02
-5.093372878806284865e-01
1.309945902695251796e+00
1.982970310685149951e+00
5.147778666366746858e-01
4.171265252421606506e-01
-4.561620230152100275e-01
-7.846475975440039274e-01
-8.714465192270817173e-01
-9.906515397106869791e-01
-5.119073818614434668e-01
-2.658133594709881642e-01
1.911600837900040428e-01
1.749432036334438445e-01
3.916494947629114987e-02
-8.079328363396076629e-01
-1.710442097765705327e-01
9.948112655871569343e-01
7.896470223393236010e-01
7.437267689566333384e-02
-6.875351187448804913e-01
-4.154409345507401596e-01
-3.939435370970485462e-01
-1.634003156285070424e-01
-4.937886799882373334e-01
-8.006563227037275521e-01
1.839630546707374803e-01
5.305167539028216028e-02
-1.808082064588322213e-01
-2.000432433207983141e-01
-6.094074631744915704e-01
2.895125681561678266e-01
2.537811836328532911e-01
-8.070226716008372936e-01
-2.209664274217494340e-01
5.560451130000616526e-01
9.554235662376772131e-01
4.506730493073088928e-01
-6.168132607067505768e-02
-4.744241946649073727e-01
-5.963528335304875139e-01
7.443935430709561762e-01
6.283005026419260508e-01
-1.645565509774073454e-01
7.574438296030541196e-01
1.107749499260079595e+00
-5.874378248515248480e-01
-4.869403624949951714e-01
3.948856590734934890e-01
-2.351094827050047020e-01
2.995497953865662311e-01
9.266862917168073865e-01
1.662498877454735569e-01
-3.781001336257833190e-01
4.408635403450295587e-01
1.375587807911881622e-01
-3.101488253380479954e-01
-2.805968917638872462e-01
-9.328831934427035399e-01
-3.529117829076061641e-01
-1.133959233268648781e-01
-3.907126763070428721e-02
3.927592457613343635e-01
3.552678267635939191e-01
5.047476967655821767e-01
1.121994131187643295e-01
-2.616722626488335313e-01
-6.166169312590311646e-01
-7.392599199912972541e-01
-2.568694308749003286e-02
2.744947313969535729e-01
1.966281286838075792e-01
-5.572865956479855498e-01
-6.870323526817256887e-01
-4.131449463125445032e-01
-4.841998383066243861e-01
1.259115279534964993e-01
-6.945823071074873623e-01
-4.561336842341379844e-02
1.108407502042364934e+00
-5.432516030421056241e-01
-7.715290256838330807e-01
-4.835342491091859096e-01
-4.141084517495804973e-01
6.269033243001778111e-01
9.375094526349653234e-01
7.329964708694145514e-01
1.600599888583655428e+00
1.251930900394121249e+00
-6.197677611281230403e-01
-9.487715098513790357e-01
-1.166661944128966621e-01
2.184416571717432198e+00
2.344462133218947919e+00
5.938897362478319231e-01
-6.092556549805117072e-02
-1.112766475659653143e+00
-1.106196679539764860e+00
-9.264647563859218504e-01
-6.867013834203858913e-01
-3.243473246075134764e-01
1.197388499675528239e-01
7.198571312425339208e-02
-9.718569174194712224e-01
-5.603232637275417094e-01
-7.467837049071589517e-01
-4.525284723833409850e-01
-2.228542261869886909e-01
-7.111187123352296080e-01
1.455058822206292346e+00
1.829424448047085816e+00
5.451956888569431392e-01
-4.809130356829601771e-01
-8.076920335191560829e-01
-4.112308586163330726e-01
-5.536721135545978889e-01
1.049014285579989325e+00
1.223190738913662035e+00
-1.709970757421213072e-01
-8.541100238602716832e-01
-4.807461850534220371e-01
-2.173626381772938154e-01
-8.178647249270155628e-01
-9.542475215063370153e-02
4.052124834124066766e-01
-1.182602884859445813e-01
-5.625782704051742744e-01
-2.846714466791715470e-01
-5.793464002614068242e-01
3.140093238565392353e-01
1.520891007177971321e+00
5.339825362500752459e-02
-2.387167315261600198e-01
1.332298715017309343e+00
1.449253872468856619e+00
7.607422566969729294e-01
-1.941160483969909256e-01
-1.062645639990463131e+00
2.772932534046466113e-01
8.668825922532436001e-01
6.604326655779072519e-01
1.866451759159365731e-01
-1.113522858868969845e+00
-9.280243021082799082e-01
-2.671436251278946905e-01
-7.111629904649445777e-01
-3.885548124461877251e-01
-4.161533336452785670e-01
-6.353618244994145847e-01
4.568561292627199011e-01
-9.302817022887573950e-01
-4.443352935614690580e-01
-4.599555523247767508e-01
-3.467119808441500028e-01
1.433185389792029252e+00
-9.081118653813169406e-02
1.688638943094809219e+00
1.265340744606287426e+00
-9.206753285943242160e-01
5.539821091826002686e-02
-2.612196707136617002e-01
2.300207438490420309e-01
6.081412254695750530e-01
-3.775209797217247698e-01
-8.200807504214508992e-01
-8.650269893164298507e-01
9.661895629131989072e-02
1.195997036782573852e+00
-7.560735668121175701e-01
-1.239758226093701898e+00
-1.953365918311495142e-01
-4.311274560852224047e-01
1.321194579559120230e+00
1.670856872508453161e+00
-1.569086076134577068e-01
-1.756613220728085456e-01
1.064736168581117637e+00
5.794744960346380758e-01
-5.201171236044928037e-01
-4.063498076111845547e-01
-4.090699235969825764e-01
7.462286782646705419e-01
1.133588851888178151e-01
-8.291493130995247762e-01
3.050137771252133256e-01
-2.736180815835653757e-03
5.008573065574872807e-01
2.515701213859766749e-01
-6.058821848979668578e-01
-9.180575425999157879e-01
-6.439845907991964546e-01
-1.117263843589949290e-01
-5.835761180196830100e-01
2.277041372652732210e-01
3.368715085777944096e-01
-4.592618675917735649e-01
-7.754296416928855296e-01
-4.301407141770393627e-01
-4.211369141549889394e-02
1.305501913771856204e+00
1.801009562820419685e+00
2.115784437323574574e-01
-2.909393032549758562e-01
-5.865923930271605968e-01
-1.322462438751798253e+00
-7.458488348954634972e-01
1.066822472949064959e+00
-5.680696663034625615e-01
-9.112610480753271514e-01
9.199367492185440975e-02
-1.290319672095232573e+00
2.886127902510982057e-02
1.348537889043879279e+00
1.758030833530864090e+00
1.633904872687309329e+00
3.561212976998889834e-02
-1.795404309958437139e-01
1.251083251389058404e+00
4.598490537110477838e-01
-7.754233746173968544e-01
-3.067188200646985274e-01
-5.727040224632140575e-01
-1.170971068847813656e+00
1.907716000993276428e-01
1.288437309059012881e+00
-5.034295104614019412e-01
-4.309148556622752202e-01
-4.539559400028305713e-01
1.051829354639693737e+00
1.959317283607997062e+00
-4.125382690209996595e-01
2.903277157351420446e-01
-8.241700522263547546e-01
-5.864934018364498236e-01
6.386647289954239248e-01
-8.085117869708381422e-01
-9.857050258604961313e-01
-8.841848503164666528e-01
-6.799312126174024140e-01
-6.043693745143325913e-01
1.456908776772214420e-02
-2.759813030104358855e-01
2.578828670566249426e-01
1.492867940720520759e+00
-4.049937685551105448e-01
-1.278856266628314753e+00
-9.200232049669545553e-01
-1.172137650877372206e+00
1.073608278061715104e+00
1.161773151265475867e+00
1.557631460149724034e-01
1.365109207431417726e+00
-1.433397495121401799e-01
-7.032114881552909980e-01
-3.829776493535508308e-01
-2.207859682701123760e-01
-6.011213809519615481e-01
-7.115329245345166642e-01
1.178990683139561124e+00
4.299284186901142224e-01
-9.749776308820878867e-02
1.366821025689314850e-01
1.786350614307112838e+00
3.943173234632661561e+00
1.772878792164226613e+00
-1.400530758077159987e+00
-1.493298478117107253e+00
-5.011855914388674282e-02
-7.164248176571915705e-01
-1.331872273193571043e+00
-1.508723781547270937e+00
-1.502115287976270253e+00
5.533130974367381771e-01
2.418642892528729327e+00
1.795507703271319144e+00
3.085557397703063143e-01
-2.885934780714887182e-01
-1.122267059061510253e+00
-1.035157006011932612e+00
-8.556594650926885315e-01
-1.192961341300238787e-01
1.733144645241531778e+00
6.556803705533109650e-02
-1.539928631671785286e+00
9.779273165422484038e-01
1.016039327795050795e+00
-1.140072660023022433e+00
-1.236823887175547032e+00
-1.248186106956855834e+00
-6.621566351236786163e-01
-1.147975201695778713e+00
-1.197942483071790187e+00
-2.254712600418206092e-01
-1.088287858666415753e+00
-1.707697979329594884e-02
1.835320926581470280e+00
1.903063240243611620e+00
1.505187240373381918e+00
4.439277935670384312e-01
-3.348988304870416655e-01
8.362864994296214105e-01
1.119560671862611656e+00
1.285717179780369035e-01
-7.508291988863885491e-01
-3.047504754925378645e-01
6.541954181351526953e-01
-1.018868879191775267e+00
5.817773920074948979e-01
1.896332487835607816e+00
-4.488400099002402555e-01
-8.851094874596679984e-01
1.704256563842815320e-01
9.573193391290721888e-01
-1.120295344032626206e+00
-2.590369157645819875e-01
1.282857233492382898e+00
1.576516722416714256e-01
1.141133108619635239e-02
-6.713781488288225185e-01
-4.458854615957861811e-01
-9.192713469065947329e-01
-2.432383132387258284e-01
-5.370260229545824604e-01
-1.130163437421056960e+00
-1.594328458073995813e-02
-5.303953661913317630e-01
8.534607133262051004e-01
1.448982189093522166e+00
6.924350385867568125e-01
-3.008418854962913169e-01
-4.236155533688573671e-02
4.946819985576553780e-01
-1.694173716382134431e+00
-1.141005747328828868e+00
2.070211147138864671e+00
2.765282573860714965e+00
-4.539076862310838928e-02
-1.751048558188072146e+00
-1.393409613620975485e+00
-1.541748500327205118e+00
-1.076409757508519860e+00
2.839903367344550622e-01
7.663813311758405078e-02
-9.109766545438202634e-01
-1.574725925828300843e+00
-2.172188610999377545e+00
-1.198401418306286104e+00
1.017436607493634293e+00
3.529168265940620941e+00
6.433782615119766346e-01
-1.137916418510525496e+00
4.260056048992523436e+00
6.067128274598026394e+00
2.580048015631847491e+00
-1.419492102177815518e+00
-1.527283253282238462e+00
8.194542397555859559e-02
5.885498616847606446e-01
-1.450532551348377996e-01
-1.774637352516285294e+00
-1.730027674686207773e+00
-1.845483865837824533e+00
-1.885271484411327192e+00
-2.298627216473505541e-01
5.807267749484357200e-01
-4.435711996349022135e-01
3.664042475620638006e-02
-9.426685346631419327e-01
-1.296033533056552445e+00
7.440989241131793497e-01
2.799615933572620063e-01
4.364425302966253306e-01
-5.444585618569340868e-01
-1.313380309252462297e+00
-1.214019455908493805e-01
4.305859166461241117e-01
2.084330323543134078e+00
1.891496573149662019e+00
-2.863949339359517232e-03
-9.806597911551322433e-01
-5.487129611981016453e-01
8.492017863166817504e-01
1.069442674073068034e+00
9.824158076060812705e-01
1.085805008554870277e+00
8.041727504785587399e-01
-1.258591437474954056e-02
-1.078560888056574019e+00
-6.691281663319244011e-01
9.619407197861242764e-01
7.458764903867303175e-01
-2.863514027735132306e-01
-1.052018078051063288e+00
-1.751925443770547819e+00
-4.925416790075036744e-01
-2.785812336900675423e-01
-5.622121967560440581e-01
4.075390780803673785e-01
-6.210097339092716107e-01
-1.996635115875978084e+00
-6.779827545626913032e-01
-4.476332178949697926e-01
-7.187158547898545580e-01
8.866653473694692256e-01
-2.515896396071420904e-01
-2.178884628344223362e+00
-8.502682198838270589e-01
2.022704236471899009e+00
1.404011883571768982e+00
6.677131866100641799e-01
4.577904438719642144e-01
-7.382223337971742794e-01
3.540323152987519428e+00
5.476710502526234592e+00
2.605517201648593240e+00
-2.241787977423261857e-01
-2.197285836411253523e+00
-1.695331725090058805e+00
-1.596469376377191107e+00
-1.427020621536883471e+00
-9.779799728336893150e-01
-1.090930852392446138e+00
-9.048167429347245827e-01
-8.289170123579259197e-02
1.899820837602712587e-01
-1.042917201292285156e+00
-8.853763929715277592e-02
2.192930011994562722e+00
2.520926728742219902e-01
-1.074339474905157577e+00
5.275520170332509418e-01
8.543322878652882535e-01
2.202068684277576960e+00
2.442527049348392154e+00
3.550998385943245905e-01
-1.032460257108489543e+00
-1.570404960774743897e+00
-7.295056346989894358e-01
-6.795221087728345877e-01
-1.211673195516245860e+00
-9.347923456893084682e-01
-2.411548949332991687e-01
6.685641036106009238e-01
3.985935462609563884e-01
9.786079082484067104e-01
7.145156791337162749e-01
-3.385603774153417289e-01
-1.145773064779153083e-01
-8.508207369892476502e-01
-5.234030680109313938e-01
-4.060591290532997166e-02
4.807306278490270923e-01
-4.880995233583440562e-02
-1.369451204807257572e+00
-5.128103055174737523e-01
-4.801438484649150906e-01
-1.124663310395595806e-01
1.325738098568132739e-01
-8.182019533059594618e-01
-1.357154225038160522e+00
-7.601244961681296042e-01
1.703845552718924183e-01
1.132973251633149214e-01
1.542081713647414754e+00
1.886530770596136275e+00
-1.553082367861360058e-01
4.838697646068010894e-01
2.248557721335547210e+00
1.748978499361773409e+00
2.139405762744242878e+00
1.695472870867176240e+00
-9.403114505996696959e-01
-1.176335108952085928e+00
-1.196494893422485495e+00
-1.040728469842287396e+00
1.703962930351510807e-01
-3.642355789320071979e-01
-9.467919066538200701e-01
-6.946039769951272147e-01
-1.531119671533682225e-01
2.188884737274459091e-01
-1.071242799841390370e-01
-3.091888484681618587e-01
-5.874508867646511812e-01
-3.165839815502135557e-01
2.764957620569706842e-01
-1.573709933026694041e-01
3.972640531508460637e-01
6.867559786622936535e-01
-4.545163800418725031e-01
-6.414297108611112241e-01
2.236340257193686343e-02
1.839566970672846802e-01
-1.534413534582590999e-01
1.603591056098353507e-01
-1.867039891839588073e-01
-4.146017883473824828e-01
3.571164735357669207e-01
5.651035006838440733e-01
6.492639940546957034e-02
-2.800405073152530400e-01
-7.554180490738041098e-02
-9.617558778459377178e-02
2.622486648355179528e-02
6.679729480696527943e-02
1.535034326157033446e-01
-1.612484173588575875e-01
6.984721350660055839e-04
4.580432115787319569e-01
-4.751599138310372283e-03
1.506426139530689379e-01
-2.825209749500862122e-02
-1.401398216587410039e-01
2.275650810453169748e-02
7.351016295353918206e-02
4.088044782502920915e-01
1.800234606674188109e-01
-1.574501513910992745e-01
-3.090646113218212254e-02
1.501191319711880912e-02
-1.081977235283197863e-01
-5.930530163334141180e-02
8.721417285871857841e-03
2.481936643059472758e-01
3.868404600409701688e-01
2.561937238954701268e-01
-1.250156123220904636e-01
-1.542666927168767632e-01
3.847462993775613987e-02
-8.771545193763746751e-02
-8.840764141969073564e-02
-1.382430687180245255e-01
-2.414191575590149963e-01
-2.593148221790635977e-01
-2.816450592188807223e-01
-3.987023667750895783e-01
-2.338819031568828977e-01
-1.849174077886339140e-01
-3.379812566418868292e-01
-1.796300418376937658e-01
-2.135207817403530772e-01
-1.186673738239416853e-01
3.583629095243542340e-01
-2.288351350039811161e-01
-1.733623407948217676e-01
1.086799719521033047e+00
6.797031445623218371e-01
-1.050614427514006688e-01
-3.467363453288354047e-01
-1.411507489692850892e-02
4.734076422492207725e-01
1.012513391934156015e+00
9.772244364978823761e-01
-1.403467288623269082e-01
-5.160018771221409617e-01
-4.989261591092509773e-01
1.324055090152898573e-01
2.544640711002803535e-01
-1.361157111293677113e-01
-3.054392362877846878e-01
-2.958518686599796998e-01
-1.160520614566659808e-01
1.272137458253772002e-02
5.907960113759473941e-01
7.278185402540848781e-02
-4.487712787422172833e-01
-3.869024723135618959e-01
-4.125964271748260026e-02
2.180125676823813086e-02
-3.249368424019171697e-01
1.654415141355659036e-01
9.749621044626999300e-02
-1.571305379542051739e-01
-1.702456243697936800e-01
-2.298644478013531500e-01
7.221791878923818075e-02
1.439120585337624325e-01
-4.873611927883425565e-02
-1.145857096187249541e-01
-1.377118789834877177e-01
1.620317483793646401e-02
-3.928501734905976567e-02
1.557779887034100863e-01
3.041293939969562654e-01
-2.266900129052109025e-01
-9.133694339857346967e-02
-1.428423967372068337e-01
2.840816609279804839e-01
6.761746041708913690e-01
-3.912301592450340149e-02
1.221933150476252894e-01
3.152558322087027631e-02
-1.551402084915194102e-01
4.815231265103407654e-02
-3.032826123281743766e-02
-1.437049758545091982e-02
-9.847908236116456604e-02
2.632054398661611005e-02
9.704599045756127917e-02
9.752640901073923729e-03
-1.981368719848571880e-01
-1.647060012393999906e-01
4.713513402164233590e-02
-1.437285746833478761e-01
-4.812487878237444588e-02
1.544403651536030986e-01
1.229924942320790165e-01
-3.236291043365418368e-02
-9.925141402706266075e-04
-4.187659256738586466e-02
-4.851104444635287449e-02
2.020364908400225645e-01
-2.649500040647232574e-02
8.721216970802400659e-03
-4.450919544380049775e-02
-1.901494580923623334e-01
-9.315457584249153822e-02
-1.697491578620386743e-01
1.940071627480814409e-01
1.131676404189769780e-01
-3.526275331614175251e-02
1.010350651358093155e-01
-1.592279735827354104e-01
1.685493315859172558e-01
2.160447721241236518e-01
-1.731348840872635741e-01
2.213196650850041136e-02
-9.156335392166277398e-02
-1.030803043925140050e-01
-3.878943853867940217e-02
-9.924368869672157978e-02
2.048793875349119165e-01
-2.284610976079573530e-02
-1.155381460554135986e-01
2.031555854714243992e-01
5.531795494619159287e-02
-8.848774740090621649e-02
2.881340245457332180e-02
9.677496078920412581e-02
3.300492031535037958e-04
-1.115823430383304088e-01
-5.536440783429424917e-02
5.563083511104586348e-02
8.195055393941569344e-02
1.407201239423849781e-01
9.338524443448090184e-02
-3.555538326594209070e-02
-8.265739624978310496e-02
-9.750718826985683985e-02
-1.005969542449410559e-01
-5.154969888744159734e-02
2.065612273485175135e-02
-4.396979779900017649e-02
-7.635404960846431388e-02
6.815651762098337563e-02
1.219382924943192559e-01
4.559245378114838015e-03
-4.849770070652748011e-02
-7.024247248856123338e-02
-1.024963812071370967e-01
-1.997399140868137343e-02
2.819344971685512277e-02
-1.010226222778752153e-01
-2.370688134838142089e-03
3.286233542486925452e-01
2.489665686284588120e-01
-7.880738313016194541e-02
-5.353818568557532076e-02
-3.573961648097941091e-02
-8.725506746822689341e-02
5.929918400196237949e-02
-3.206357960841924037e-02
-3.410972200737050208e-02
1.207370738472216855e-02
-7.972352089206061199e-02
6.848890267544011090e-03
5.941982631538719056e-02
-7.686924359941105234e-02
-8.780120805228527892e-02
-1.305885342055867204e-01
-3.471030395668914248e-02
3.958100810430394967e-01
4.174993321808964652e-02
-6.775183473461547645e-02
3.862433543351995180e-02
-2.125608816638512588e-01
-9.394989887362517611e-02
-1.867755974059202018e-01
-2.446982836968744635e-02
-2.677789308324698969e-02
-6.675703328481046028e-02
5.424519350400774237e-02
-1.555099615111071032e-01
3.994503358791957198e-02
-3.262026380912173840e-02
1.261261625667475794e-01
6.382072077221510042e-01
6.091767278215830944e-02
5.244758591879256082e-02
3.326446584706775900e-01
-1.806206215069276755e-02
2.683564394998171898e-01
1.802632553704329177e-01
-1.108924142201631463e-01
-1.250625997242992282e-01
-1.308884941602149743e-01
-1.425742700922696393e-01
-1.055330008415567011e-01
-9.096829714055362434e-03
-1.597805862292625834e-01
-1.246163500140536062e-01
-1.403742316931684275e-01
-4.195645968663182929e-02
-5.099027373931079576e-02
-1.443374288445049280e-01
-1.571876794475908778e-01
-1.409816226526915961e-01
-4.424053512034244184e-02
-3.643348034324245255e-02
-3.138883540203058625e-02
-1.598515237021935209e-01
-5.126766562279408412e-02
-1.010775324073239223e-01
5.077628382323411127e-02
-7.406338918661894977e-04
6.777988983434202197e-02
2.723349446677832963e-01
2.405181826344267582e-01
8.061767660647505274e-01
1.958593613277059553e-01
-2.056734240087467191e-01
8.650855361609699479e-02
1.918953643313522917e-02
9.194966267145926464e-02
-9.439120408737883272e-02
-2.026531758180996623e-02
-5.101947111395799261e-02
-1.366591044407602651e-01
-7.799807706411718278e-02
-6.608988320707297193e-02
-7.803669069547448933e-02
-5.681625521227236242e-02
-1.614532608795363894e-02
-1.021169620734957151e-01
-9.568953591150028415e-02
-6.086367735856827027e-02
-1.236594927767107471e-02
7.654025832094858706e-02
1.314497630671235262e-01
3.760792315897031057e-02
-4.530501316180758631e-02
-7.707681762681971305e-02
-1.106101236934422249e-01
-7.282423577023396100e-02
-2.170602922445129257e-02
1.809910612798249288e-02
2.060623041630404995e-02
2.250828670319710706e-02
5.104145043222597933e-02
7.035941520330893373e-02
6.013276304276780199e-02
7.121416834677318786e-02
5.997613025986850421e-02
6.733543947932882356e-02
1.078952504901205672e-01
8.268354213744294468e-02
-5.150045036336475812e-02
-6.781031662170258767e-02
-5.667377651439525765e-02
-9.379215428933131149e-02
2.783372805860318683e-03
-1.922783165677781347e-02
-5.167069593583233089e-02
-9.615767055903971794e-02
-2.826515746762401152e-02
-1.388220221443883795e-02
-9.108308195423743536e-02
7.588202582981194190e-03
2.223514574493974660e-02
6.448777161659352553e-02
8.508255162144311157e-02
1.302495575500993950e-03
-6.891443408161121442e-02
4.835865302984913155e-02
-1.177010906011619618e-01
-7.649171839823734609e-02
3.980209647394881978e-02
-4.722897856597663147e-02
1.845007001805886171e-01
-1.058277416113769659e-01
9.117693789950101491e-02
1.758445908575995142e-01
-8.560991099292700190e-02
1.107187477492554278e-01
2.589730662707540043e-03
1.073633973134678898e-01
-1.415326666767652564e-01
-1.695020101565324344e-01
1.373222255794408486e-01
1.542263335932871349e-01
2.627000995892339041e-01
-7.729473432193398330e-02
-9.537309935656045068e-02
1.428759858010847650e-01
-8.223321587792237208e-02
-1.583736746037669452e-01
-1.158382226925932512e-01
-1.385909097671891022e-01
-6.214423857247634853e-02
5.305678550405441146e-02
-3.043975652955133171e-02
-1.029021137004653419e-01
-7.712721011935477766e-02
-1.323386212713109078e-01
-9.167667336827628466e-02
-9.457349265380042558e-02
-1.229832454718644830e-01
3.344633419682772890e-02
4.265957970599444371e-01
3.794082614698178757e-01
1.474281293012083549e-02
6.026403293461859989e-02
